 % time (yr) / global total DIC_13C (mol) / global DIC_13C (o/oo) / surface (ice-free) DIC_13C (o/oo) / benthic [> 2000 m] DIC_13C (o/oo) / surface DIC_13C (o/oo)
       0.500  0.362278808081E+17       0.417       1.369       0.398       1.369
       1.500  0.362178769834E+17       0.424       1.831       0.392       1.831
       2.500  0.362155413989E+17       0.425       1.962       0.387       1.962
       3.500  0.362136175906E+17       0.425       2.031       0.382       2.031
       4.500  0.362115984897E+17       0.426       2.070       0.378       2.070
       5.500  0.362095425023E+17       0.427       2.094       0.375       2.094
       6.500  0.362074897143E+17       0.428       2.111       0.372       2.111
       7.500  0.362055129953E+17       0.428       2.123       0.369       2.123
       8.500  0.362036054572E+17       0.429       2.132       0.367       2.132
       9.500  0.362017647725E+17       0.429       2.139       0.365       2.139
      10.500  0.361999757440E+17       0.430       2.143       0.364       2.143
      11.500  0.361982096726E+17       0.430       2.146       0.362       2.145
      12.500  0.361964634692E+17       0.431       2.149       0.361       2.146
      13.500  0.361947400069E+17       0.431       2.150       0.360       2.145
      14.500  0.361930487282E+17       0.431       2.150       0.359       2.144
      15.500  0.361913868354E+17       0.432       2.150       0.358       2.142
      16.500  0.361897609881E+17       0.432       2.150       0.357       2.140
      17.500  0.361881740236E+17       0.432       2.150       0.357       2.137
      18.500  0.361866204804E+17       0.432       2.149       0.356       2.135
      19.500  0.361851079213E+17       0.432       2.150       0.356       2.133
      21.500  0.361822029607E+17       0.433       2.149       0.356       2.127
      23.500  0.361793981364E+17       0.433       2.144       0.356       2.121
      25.500  0.361766802181E+17       0.433       2.137       0.356       2.115
      27.500  0.361740234829E+17       0.433       2.132       0.357       2.111
      29.500  0.361714424240E+17       0.433       2.128       0.358       2.109
      31.500  0.361688929795E+17       0.433       2.122       0.360       2.106
      33.500  0.361663837661E+17       0.433       2.116       0.361       2.103
      35.500  0.361639141399E+17       0.433       2.111       0.363       2.100
      37.500  0.361614863085E+17       0.433       2.106       0.365       2.097
      39.500  0.361590769777E+17       0.433       2.101       0.367       2.093
      41.500  0.361566890626E+17       0.433       2.095       0.369       2.088
      43.500  0.361543144481E+17       0.433       2.089       0.371       2.083
      45.500  0.361519637923E+17       0.433       2.083       0.373       2.078
      47.500  0.361496262071E+17       0.433       2.077       0.375       2.073
      49.500  0.361473092658E+17       0.433       2.071       0.377       2.067
      51.500  0.361450102408E+17       0.433       2.065       0.379       2.062
      53.500  0.361427285793E+17       0.433       2.059       0.381       2.056
      55.500  0.361404498620E+17       0.433       2.053       0.383       2.050
      57.500  0.361381685057E+17       0.433       2.047       0.385       2.044
      59.500  0.361358949554E+17       0.433       2.041       0.386       2.039
      61.500  0.361336306538E+17       0.433       2.036       0.388       2.034
      63.500  0.361313735693E+17       0.433       2.031       0.389       2.029
      65.500  0.361291168224E+17       0.433       2.026       0.391       2.024
      67.500  0.361268678939E+17       0.433       2.021       0.392       2.019
      69.500  0.361246310590E+17       0.433       2.016       0.393       2.015
      71.500  0.361224039462E+17       0.433       2.012       0.394       2.011
      73.500  0.361201805247E+17       0.433       2.008       0.395       2.007
      75.500  0.361179548313E+17       0.433       2.004       0.396       2.003
      77.500  0.361157339920E+17       0.433       2.000       0.397       1.999
      79.500  0.361135216696E+17       0.433       1.996       0.398       1.996
      81.500  0.361113263349E+17       0.433       1.993       0.399       1.993
      83.500  0.361091519291E+17       0.433       1.990       0.400       1.990
      85.500  0.361069920545E+17       0.433       1.987       0.401       1.986
      87.500  0.361048389271E+17       0.433       1.983       0.402       1.983
      89.500  0.361026939849E+17       0.433       1.980       0.403       1.980
      91.500  0.361005612206E+17       0.433       1.978       0.404       1.978
      93.500  0.360984410640E+17       0.433       1.975       0.405       1.975
      95.500  0.360963285727E+17       0.433       1.972       0.406       1.972
      97.500  0.360942226523E+17       0.433       1.969       0.407       1.970
      99.500  0.360921263013E+17       0.433       1.967       0.408       1.967
     104.500  0.360869065459E+17       0.433       1.961       0.410       1.961
     109.500  0.360817520188E+17       0.433       1.956       0.412       1.956
     114.500  0.360766714274E+17       0.433       1.951       0.414       1.952
     119.500  0.360716852350E+17       0.433       1.947       0.416       1.947
     124.500  0.360667645923E+17       0.433       1.943       0.418       1.943
     129.500  0.360619096536E+17       0.433       1.939       0.420       1.940
     134.500  0.360571098664E+17       0.433       1.935       0.422       1.936
     139.500  0.360523788509E+17       0.433       1.932       0.423       1.933
     144.500  0.360476965991E+17       0.433       1.929       0.424       1.929
     149.500  0.360430727696E+17       0.433       1.926       0.426       1.927
     154.500  0.360384978725E+17       0.434       1.923       0.427       1.924
     159.500  0.360339778896E+17       0.434       1.921       0.428       1.921
     164.500  0.360295027727E+17       0.434       1.918       0.429       1.919
     169.500  0.360250837090E+17       0.434       1.916       0.430       1.917
     174.500  0.360207112446E+17       0.434       1.914       0.431       1.914
     179.500  0.360163862203E+17       0.434       1.912       0.432       1.912
     184.500  0.360121170723E+17       0.434       1.910       0.433       1.911
     189.500  0.360079030879E+17       0.434       1.909       0.434       1.909
     194.500  0.360037424847E+17       0.435       1.908       0.435       1.908
     199.500  0.359996298570E+17       0.435       1.906       0.436       1.906
     204.500  0.359955714484E+17       0.435       1.905       0.437       1.905
     209.500  0.359915661761E+17       0.435       1.904       0.438       1.904
     214.500  0.359876160536E+17       0.435       1.903       0.439       1.902
     219.500  0.359837226105E+17       0.435       1.902       0.440       1.901
     224.500  0.359798811166E+17       0.435       1.901       0.441       1.900
     229.500  0.359760907694E+17       0.436       1.901       0.442       1.899
     234.500  0.359723523303E+17       0.436       1.900       0.442       1.899
     239.500  0.359686660178E+17       0.436       1.899       0.443       1.898
     244.500  0.359650315650E+17       0.436       1.899       0.444       1.897
     249.500  0.359614463358E+17       0.436       1.898       0.445       1.896
     254.500  0.359579032476E+17       0.436       1.898       0.446       1.895
     259.500  0.359544121114E+17       0.436       1.897       0.447       1.895
     264.500  0.359509679914E+17       0.436       1.897       0.448       1.894
     269.500  0.359475779034E+17       0.436       1.897       0.448       1.894
     274.500  0.359442391062E+17       0.436       1.896       0.449       1.893
     279.500  0.359409428483E+17       0.436       1.896       0.450       1.893
     284.500  0.359376973401E+17       0.436       1.896       0.450       1.893
     289.500  0.359344972975E+17       0.437       1.895       0.451       1.892
     294.500  0.359313423174E+17       0.437       1.895       0.452       1.892
     299.500  0.359282299898E+17       0.437       1.895       0.452       1.891
     304.500  0.359251628191E+17       0.437       1.895       0.453       1.891
     309.500  0.359221372312E+17       0.437       1.894       0.454       1.891
     314.500  0.359191457833E+17       0.437       1.894       0.454       1.890
     319.500  0.359161923537E+17       0.437       1.894       0.455       1.890
     324.500  0.359132772975E+17       0.437       1.894       0.455       1.890
     329.500  0.359103997023E+17       0.437       1.894       0.456       1.890
     334.500  0.359075610316E+17       0.437       1.893       0.456       1.889
     339.500  0.359047603693E+17       0.437       1.893       0.457       1.889
     344.500  0.359020035096E+17       0.437       1.894       0.457       1.889
     349.500  0.358992822169E+17       0.437       1.894       0.457       1.889
     354.500  0.358965985415E+17       0.437       1.893       0.458       1.889
     359.500  0.358939609359E+17       0.437       1.893       0.458       1.889
     364.500  0.358913523614E+17       0.437       1.893       0.458       1.889
     369.500  0.358887738332E+17       0.437       1.893       0.459       1.888
     374.500  0.358862305032E+17       0.436       1.893       0.459       1.888
     379.500  0.358837253797E+17       0.436       1.894       0.459       1.888
     384.500  0.358812530527E+17       0.436       1.894       0.459       1.888
     389.500  0.358788143589E+17       0.436       1.894       0.460       1.888
     394.500  0.358764060745E+17       0.436       1.894       0.460       1.888
     399.500  0.358740265476E+17       0.436       1.893       0.460       1.888
     404.500  0.358716772541E+17       0.436       1.893       0.460       1.888
     409.500  0.358693591899E+17       0.436       1.894       0.460       1.888
     414.500  0.358670747783E+17       0.436       1.894       0.460       1.889
     419.500  0.358648230774E+17       0.436       1.894       0.460       1.889
     424.500  0.358626007069E+17       0.436       1.895       0.460       1.889
     429.500  0.358604152863E+17       0.436       1.895       0.460       1.889
     434.500  0.358582604479E+17       0.435       1.895       0.460       1.889
     439.500  0.358561394748E+17       0.435       1.896       0.460       1.889
     444.500  0.358540472247E+17       0.435       1.896       0.460       1.890
     449.500  0.358519844251E+17       0.435       1.896       0.460       1.890
     454.500  0.358499494484E+17       0.435       1.896       0.460       1.890
     459.500  0.358479453533E+17       0.435       1.896       0.460       1.890
     464.500  0.358459661052E+17       0.435       1.897       0.460       1.890
     469.500  0.358440115355E+17       0.435       1.897       0.460       1.890
     474.500  0.358420769208E+17       0.434       1.896       0.459       1.890
     479.500  0.358401721838E+17       0.434       1.897       0.459       1.890
     484.500  0.358382867642E+17       0.434       1.897       0.459       1.890
     489.500  0.358364242097E+17       0.434       1.897       0.459       1.890
     494.500  0.358345834483E+17       0.434       1.897       0.458       1.891
     499.500  0.358327722697E+17       0.434       1.897       0.458       1.891
     504.500  0.358309887341E+17       0.433       1.897       0.458       1.891
     509.500  0.358292302317E+17       0.433       1.897       0.458       1.891
     514.500  0.358274973484E+17       0.433       1.898       0.458       1.891
     519.500  0.358257922709E+17       0.433       1.898       0.457       1.891
     524.500  0.358241113365E+17       0.433       1.898       0.457       1.891
     529.500  0.358224542684E+17       0.432       1.898       0.457       1.891
     534.500  0.358208174372E+17       0.432       1.898       0.456       1.891
     539.500  0.358191979666E+17       0.432       1.898       0.456       1.891
     544.500  0.358176003489E+17       0.432       1.899       0.456       1.891
     549.500  0.358160396787E+17       0.431       1.899       0.455       1.891
     554.500  0.358145004256E+17       0.431       1.899       0.455       1.891
     559.500  0.358129799711E+17       0.431       1.899       0.455       1.892
     564.500  0.358114809668E+17       0.431       1.900       0.454       1.891
     569.500  0.358100107962E+17       0.430       1.900       0.454       1.892
     574.500  0.358085590284E+17       0.430       1.900       0.453       1.892
     579.500  0.358071280723E+17       0.430       1.901       0.453       1.892
     584.500  0.358057209713E+17       0.430       1.901       0.452       1.892
     589.500  0.358043341119E+17       0.429       1.901       0.452       1.892
     594.500  0.358029578990E+17       0.429       1.901       0.451       1.892
     599.500  0.358016047638E+17       0.429       1.901       0.451       1.892
     604.500  0.358002706157E+17       0.429       1.901       0.450       1.892
     609.500  0.357989545280E+17       0.428       1.901       0.450       1.892
     614.500  0.357976641281E+17       0.428       1.902       0.449       1.892
     619.500  0.357963926159E+17       0.428       1.902       0.449       1.892
     624.500  0.357951356123E+17       0.427       1.903       0.448       1.892
     629.500  0.357939042913E+17       0.427       1.903       0.448       1.892
     634.500  0.357926872090E+17       0.427       1.903       0.447       1.892
     639.500  0.357914893942E+17       0.427       1.903       0.447       1.892
     644.500  0.357902965760E+17       0.426       1.903       0.446       1.892
     649.500  0.357891269491E+17       0.426       1.904       0.445       1.892
     654.500  0.357879842764E+17       0.426       1.904       0.445       1.893
     659.500  0.357868575876E+17       0.425       1.904       0.444       1.893
     664.500  0.357857453066E+17       0.425       1.904       0.443       1.893
     669.500  0.357846564836E+17       0.425       1.906       0.443       1.894
     674.500  0.357835983538E+17       0.425       1.906       0.442       1.895
     679.500  0.357825663096E+17       0.424       1.907       0.442       1.895
     684.500  0.357815515710E+17       0.424       1.907       0.441       1.895
     689.500  0.357805554677E+17       0.424       1.908       0.440       1.896
     694.500  0.357795755480E+17       0.423       1.908       0.440       1.896
     699.500  0.357786066359E+17       0.423       1.909       0.439       1.897
     704.500  0.357776544969E+17       0.423       1.909       0.438       1.897
     709.500  0.357767230226E+17       0.422       1.910       0.438       1.897
     714.500  0.357758114098E+17       0.422       1.910       0.437       1.898
     719.500  0.357749166965E+17       0.422       1.911       0.436       1.898
     724.500  0.357740359584E+17       0.422       1.912       0.436       1.899
     729.500  0.357731679925E+17       0.421       1.912       0.435       1.899
     734.500  0.357723157199E+17       0.421       1.913       0.435       1.899
     739.500  0.357714810278E+17       0.421       1.913       0.434       1.900
     744.500  0.357706692658E+17       0.420       1.914       0.433       1.901
     749.500  0.357698909902E+17       0.420       1.915       0.433       1.902
     754.500  0.357691344638E+17       0.420       1.916       0.432       1.903
     759.500  0.357684123993E+17       0.419       1.917       0.431       1.905
     764.500  0.357677219762E+17       0.419       1.919       0.431       1.906
     769.500  0.357670456883E+17       0.419       1.919       0.430       1.907
     774.500  0.357663871310E+17       0.418       1.921       0.430       1.908
     779.500  0.357657456279E+17       0.418       1.922       0.430       1.909
     784.500  0.357651185806E+17       0.418       1.922       0.429       1.910
     789.500  0.357645025141E+17       0.417       1.924       0.429       1.911
     794.500  0.357638965319E+17       0.417       1.924       0.429       1.911
     799.500  0.357632955238E+17       0.416       1.925       0.428       1.912
     804.500  0.357627034432E+17       0.416       1.926       0.428       1.913
     809.500  0.357621183527E+17       0.416       1.926       0.428       1.914
     814.500  0.357615406057E+17       0.415       1.927       0.428       1.914
     819.500  0.357609709964E+17       0.415       1.928       0.427       1.915
     824.500  0.357604157397E+17       0.415       1.929       0.427       1.916
     829.500  0.357598657329E+17       0.414       1.929       0.427       1.917
     834.500  0.357593228577E+17       0.414       1.930       0.427       1.917
     839.500  0.357587809591E+17       0.413       1.930       0.427       1.918
     844.500  0.357582438489E+17       0.413       1.931       0.426       1.918
     849.500  0.357577143299E+17       0.413       1.931       0.426       1.918
     854.500  0.357571900855E+17       0.412       1.932       0.426       1.919
     859.500  0.357566716303E+17       0.412       1.932       0.426       1.920
     864.500  0.357561590724E+17       0.411       1.933       0.425       1.920
     869.500  0.357556499161E+17       0.411       1.933       0.425       1.920
     874.500  0.357551451618E+17       0.410       1.933       0.425       1.921
     879.500  0.357546434683E+17       0.410       1.934       0.425       1.921
     884.500  0.357541472312E+17       0.410       1.934       0.424       1.921
     889.500  0.357536583113E+17       0.409       1.934       0.424       1.921
     894.500  0.357531868982E+17       0.409       1.935       0.424       1.922
     899.500  0.357527175208E+17       0.408       1.935       0.423       1.922
     904.500  0.357522431880E+17       0.408       1.935       0.423       1.922
     909.500  0.357517663315E+17       0.408       1.936       0.423       1.922
     914.500  0.357512939956E+17       0.407       1.936       0.422       1.922
     919.500  0.357508205773E+17       0.407       1.936       0.422       1.923
     924.500  0.357503474085E+17       0.406       1.936       0.422       1.923
     929.500  0.357498769336E+17       0.406       1.936       0.421       1.923
     934.500  0.357494090815E+17       0.405       1.936       0.421       1.923
     939.500  0.357489422673E+17       0.405       1.936       0.421       1.923
     944.500  0.357484785524E+17       0.405       1.936       0.420       1.923
     949.500  0.357480173299E+17       0.404       1.936       0.420       1.923
     954.500  0.357475560314E+17       0.404       1.936       0.420       1.923
     959.500  0.357470986148E+17       0.403       1.936       0.419       1.923
     964.500  0.357466439541E+17       0.403       1.936       0.419       1.923
     969.500  0.357461899931E+17       0.402       1.936       0.419       1.923
     974.500  0.357457369443E+17       0.402       1.936       0.418       1.923
     979.500  0.357452860339E+17       0.402       1.936       0.418       1.923
     984.500  0.357448425546E+17       0.401       1.936       0.417       1.923
     989.500  0.357444013730E+17       0.401       1.936       0.417       1.923
     994.500  0.357439594417E+17       0.400       1.936       0.417       1.923
     999.500  0.357435220255E+17       0.400       1.936       0.416       1.923
    1019.500  0.357417852975E+17       0.398       1.936       0.415       1.923
    1039.500  0.357400773954E+17       0.396       1.936       0.413       1.922
    1059.500  0.357383969068E+17       0.395       1.935       0.411       1.922
    1079.500  0.357367415578E+17       0.393       1.934       0.410       1.921
