 % time (yr) / temperature (C) / _surT (ice-free) (C) / _benT (C) [> 2000 m] / _surT (C)
       0.500    5.025554    7.353604    4.969304    7.353604
       1.500    5.059843   10.021399    4.920332   10.021399
       2.500    5.086104   11.447653    4.880454   11.447653
       3.500    5.107650   12.338095    4.844926   12.338095
       4.500    5.126060   12.955952    4.812303   12.955952
       5.500    5.142167   13.423282    4.781916   13.423282
       6.500    5.156456   13.800473    4.753408   13.800473
       7.500    5.169240   14.118004    4.726310   14.118004
       8.500    5.180747   14.391024    4.700521   14.391024
       9.500    5.191154   14.629382    4.675608   14.629054
      10.500    5.200605   14.842014    4.651171   14.838414
      11.500    5.209230   15.038042    4.627083   15.023639
      12.500    5.217135   15.219496    4.603181   15.190336
      13.500    5.224402   15.383837    4.579666   15.339755
      14.500    5.231089   15.538055    4.556230   15.475065
      15.500    5.237255   15.681633    4.532893   15.598021
      16.500    5.242950   15.813397    4.509780   15.710232
      17.500    5.248226   15.944555    4.486933   15.813643
      18.500    5.253139   16.057104    4.464302   15.909040
      19.500    5.257731   16.180788    4.441849   15.994484
      21.500    5.266054   16.387873    4.397257   16.142480
      23.500    5.273339   16.548144    4.352200   16.272865
      25.500    5.279704   16.675320    4.305660   16.390205
      27.500    5.285176   16.800777    4.258024   16.502157
      29.500    5.289797   16.912464    4.209906   16.604543
      31.500    5.293599   17.006732    4.160703   16.700902
      33.500    5.296586   17.092105    4.110952   16.791224
      35.500    5.298796   17.178664    4.062724   16.876304
      37.500    5.300297   17.255653    4.015035   16.953204
      39.500    5.301160   17.323583    3.968621   17.022277
      41.500    5.301437   17.386228    3.923412   17.085815
      43.500    5.301181   17.442350    3.879578   17.142912
      45.500    5.300473   17.491381    3.837651   17.191766
      47.500    5.299386   17.535653    3.797930   17.234641
      49.500    5.297960   17.574662    3.759559   17.274571
      51.500    5.296205   17.613845    3.722518   17.313374
      53.500    5.294137   17.651942    3.686989   17.349639
      55.500    5.291770   17.687028    3.652744   17.384402
      57.500    5.289113   17.723260    3.619239   17.417986
      59.500    5.286182   17.755374    3.586369   17.449177
      61.500    5.282988   17.785659    3.554502   17.479169
      63.500    5.279541   17.814650    3.523122   17.508223
      65.500    5.275843   17.842339    3.492157   17.535983
      67.500    5.271908   17.868222    3.461569   17.562359
      69.500    5.267745   17.893121    3.431436   17.587780
      71.500    5.263363   17.918262    3.401776   17.612521
      73.500    5.258773   17.940204    3.372657   17.634803
      75.500    5.253994   17.960249    3.344251   17.655219
      77.500    5.249034   17.980051    3.316522   17.675116
      79.500    5.243901   17.999171    3.289386   17.694204
      81.500    5.238602   18.017682    3.262672   17.712396
      83.500    5.233143   18.034946    3.236401   17.729874
      85.500    5.227533   18.050735    3.211096   17.746130
      87.500    5.221787   18.065190    3.186383   17.760514
      89.500    5.215917   18.079788    3.162555   17.773903
      91.500    5.209934   18.092047    3.139579   17.786068
      93.500    5.203847   18.103476    3.117125   17.797415
      95.500    5.197656   18.114638    3.095259   17.808526
      97.500    5.191367   18.124894    3.073901   17.819187
      99.500    5.184990   18.135187    3.053271   17.828966
     104.500    5.168677   18.157320    3.002975   17.851174
     109.500    5.151893   18.175800    2.955319   17.871277
     114.500    5.134670   18.193349    2.910663   17.889504
     119.500    5.117063   18.209914    2.869122   17.904581
     124.500    5.099150   18.221293    2.830006   17.916421
     129.500    5.081008   18.224928    2.793302   17.924059
     134.500    5.062732   18.226686    2.758755   17.927062
     139.500    5.044405   18.229858    2.725780   17.927630
     144.500    5.026059   18.227225    2.694269   17.927798
     149.500    5.007705   18.226670    2.663826   17.927504
     154.500    4.989378   18.224620    2.634376   17.925552
     159.500    4.971106   18.220986    2.606120   17.922017
     164.500    4.952922   18.216058    2.578850   17.917208
     169.500    4.934825   18.210844    2.551819   17.912117
     174.500    4.916822   18.205124    2.526032   17.906530
     179.500    4.898916   18.199504    2.500991   17.901117
     184.500    4.881110   18.194282    2.476302   17.896013
     189.500    4.863406   18.188961    2.451792   17.891260
     194.500    4.845802   18.184635    2.427582   17.886598
     199.500    4.828307   18.180443    2.403519   17.881634
     204.500    4.810919   18.176127    2.379676   17.876511
     209.500    4.793654   18.172924    2.356159   17.870684
     214.500    4.776507   18.169103    2.332834   17.865305
     219.500    4.759473   18.164926    2.309841   17.859585
     224.500    4.742558   18.160048    2.287091   17.853857
     229.500    4.725749   18.155031    2.264483   17.848332
     234.500    4.709054   18.149505    2.242591   17.842271
     239.500    4.692489   18.144207    2.221154   17.835785
     244.500    4.676075   18.141772    2.200059   17.828730
     249.500    4.659804   18.136951    2.179509   17.822337
     254.500    4.643671   18.131819    2.159325   17.816112
     259.500    4.627676   18.127527    2.139513   17.810204
     264.500    4.611816   18.121933    2.120078   17.803672
     269.500    4.596095   18.121598    2.101099   17.797349
     274.500    4.580509   18.112134    2.082306   17.791554
     279.500    4.565053   18.109109    2.063750   17.785634
     284.500    4.549733   18.103812    2.045555   17.779496
     289.500    4.534554   18.098889    2.027686   17.772986
     294.500    4.519517   18.093247    2.010175   17.766547
     299.500    4.504622   18.088297    1.993220   17.760074
     304.500    4.489863   18.082096    1.976713   17.753843
     309.500    4.475248   18.076646    1.960634   17.747198
     314.500    4.460782   18.070930    1.944976   17.740376
     319.500    4.446465   18.064836    1.929488   17.733921
     324.500    4.432286   18.059795    1.914276   17.727598
     329.500    4.418241   18.054669    1.898991   17.721480
     334.500    4.404329   18.048689    1.884190   17.714722
     339.500    4.390556   18.042640    1.869957   17.708592
     344.500    4.376909   18.037851    1.855971   17.702656
     349.500    4.363400   18.032778    1.842301   17.696381
     354.500    4.350026   18.024410    1.828918   17.690595
     359.500    4.336767   18.019548    1.816000   17.685564
     364.500    4.323636   18.014632    1.803174   17.679331
     369.500    4.310654   18.010126    1.790466   17.673025
     374.500    4.297814   18.008389    1.777902   17.666937
     379.500    4.285108   18.005668    1.765602   17.660968
     384.500    4.272534   17.999555    1.753558   17.655217
     389.500    4.260089   17.995013    1.741770   17.649482
     394.500    4.247778   17.988010    1.730213   17.643869
     399.500    4.235609   17.977543    1.718924   17.637616
     404.500    4.223589   17.974433    1.707801   17.631760
     409.500    4.211714   17.970698    1.696791   17.626007
     414.500    4.199999   17.968480    1.685976   17.620606
     419.500    4.188413   17.966667    1.675455   17.615479
     424.500    4.176939   17.970499    1.665145   17.610371
     429.500    4.165569   17.969997    1.655066   17.605358
     434.500    4.154293   17.965954    1.645252   17.601155
     439.500    4.143113   17.961254    1.635656   17.596594
     444.500    4.132025   17.956828    1.626276   17.592373
     449.500    4.121033   17.952258    1.617208   17.587522
     454.500    4.110143   17.948862    1.608141   17.582908
     459.500    4.099349   17.946215    1.599240   17.578585
     464.500    4.088651   17.942652    1.590596   17.574198
     469.500    4.078047   17.935846    1.582134   17.569507
     474.500    4.067543   17.926466    1.573801   17.564793
     479.500    4.057134   17.922041    1.565343   17.560378
     484.500    4.046825   17.917282    1.557112   17.555580
     489.500    4.036615   17.912695    1.548929   17.550949
     494.500    4.026496   17.904517    1.540843   17.546295
     499.500    4.016467   17.905078    1.532989   17.541929
     504.500    4.006532   17.900878    1.525128   17.537584
     509.500    3.996690   17.897478    1.517371   17.532924
     514.500    3.986944   17.893701    1.509772   17.528385
     519.500    3.977294   17.890961    1.502231   17.523887
     524.500    3.967744   17.887733    1.494852   17.519560
     529.500    3.958290   17.883801    1.487614   17.515070
     534.500    3.948926   17.880100    1.480420   17.511034
     539.500    3.939643   17.873343    1.473407   17.507167
     544.500    3.930432   17.872336    1.466582   17.504436
     549.500    3.921266   17.873744    1.459712   17.501806
     554.500    3.912180   17.870787    1.453019   17.497972
     559.500    3.903181   17.866871    1.446573   17.493983
     564.500    3.894269   17.874657    1.440478   17.489429
     569.500    3.885440   17.872500    1.434538   17.485349
     574.500    3.876704   17.867875    1.428731   17.480826
     579.500    3.868068   17.864780    1.423206   17.475954
     584.500    3.859536   17.862451    1.417912   17.471435
     589.500    3.851099   17.853307    1.412777   17.466365
     594.500    3.842765   17.849842    1.407752   17.461889
     599.500    3.834531   17.849944    1.402790   17.457811
     604.500    3.826386   17.843305    1.397748   17.453339
     609.500    3.818350   17.839630    1.392834   17.448621
     614.500    3.810415   17.841942    1.388037   17.444030
     619.500    3.802567   17.837240    1.383240   17.439366
     624.500    3.794817   17.847594    1.378481   17.434030
     629.500    3.787168   17.844869    1.374154   17.428467
     634.500    3.779622   17.842269    1.370228   17.423295
     639.500    3.772187   17.832910    1.366652   17.417382
     644.500    3.764857   17.820758    1.363369   17.410397
     649.500    3.757658   17.839201    1.360414   17.404242
     654.500    3.750585   17.834559    1.357859   17.397740
     659.500    3.743628   17.826665    1.355716   17.389605
     664.500    3.736815   17.819279    1.353994   17.380979
     669.500    3.730182   17.822920    1.352675   17.373576
     674.500    3.723729   17.825459    1.351806   17.366641
     679.500    3.717414   17.824487    1.351555   17.357428
     684.500    3.711249   17.820181    1.351570   17.349496
     689.500    3.705230   17.811818    1.351759   17.342585
     694.500    3.699364   17.805938    1.352373   17.336046
     699.500    3.693633   17.801990    1.353436   17.330118
     704.500    3.688033   17.796549    1.354759   17.323929
     709.500    3.682562   17.799727    1.356415   17.317742
     714.500    3.677197   17.794988    1.358460   17.312333
     719.500    3.671968   17.789669    1.360775   17.306702
     724.500    3.666847   17.796189    1.363320   17.299627
     729.500    3.661837   17.798521    1.366161   17.291356
     734.500    3.656963   17.795046    1.369308   17.282464
     739.500    3.652258   17.796531    1.372707   17.270718
     744.500    3.647806   17.794647    1.376440   17.259959
     749.500    3.643573   17.792189    1.380444   17.249049
     754.500    3.639537   17.790588    1.384720   17.238672
     759.500    3.635701   17.783430    1.389318   17.230323
     764.500    3.632026   17.786713    1.394263   17.220832
     769.500    3.628533   17.778360    1.399421   17.211733
     774.500    3.625227   17.775904    1.404791   17.202371
     779.500    3.622088   17.769046    1.410317   17.193159
     784.500    3.619115   17.762297    1.415875   17.185617
     789.500    3.616284   17.761702    1.421422   17.179250
     794.500    3.613581   17.758618    1.427014   17.173265
     799.500    3.610998   17.753523    1.432615   17.167717
     804.500    3.608531   17.750225    1.438199   17.163147
     809.500    3.606168   17.740991    1.443762   17.158704
     814.500    3.603895   17.741047    1.449309   17.154852
     819.500    3.601696   17.738042    1.454815   17.151838
     824.500    3.599574   17.737337    1.460321   17.148294
     829.500    3.597535   17.736947    1.465553   17.144300
     834.500    3.595588   17.736844    1.470875   17.140128
     839.500    3.593733   17.734372    1.476306   17.136784
     844.500    3.591940   17.732647    1.481533   17.133382
     849.500    3.590210   17.730805    1.486707   17.129024
     854.500    3.588563   17.729095    1.491701   17.125570
     859.500    3.586996   17.726564    1.496554   17.122654
     864.500    3.585487   17.724821    1.501339   17.119829
     869.500    3.584034   17.721880    1.505918   17.117388
     874.500    3.582621   17.723326    1.510337   17.114775
     879.500    3.581254   17.720447    1.514593   17.112240
     884.500    3.579942   17.721404    1.518696   17.109419
     889.500    3.578669   17.722418    1.522677   17.106065
     894.500    3.577391   17.722846    1.526455   17.101061
     899.500    3.576175   17.720120    1.529735   17.097776
     904.500    3.575017   17.719548    1.533178   17.095593
     909.500    3.573903   17.717996    1.536368   17.093859
     914.500    3.572823   17.716151    1.539413   17.092312
     919.500    3.571779   17.713359    1.542388   17.090562
     924.500    3.570775   17.713656    1.545241   17.088816
     929.500    3.569804   17.712534    1.547947   17.087322
     934.500    3.568864   17.709711    1.550596   17.085987
     939.500    3.567953   17.710191    1.553087   17.084690
     944.500    3.567065   17.708351    1.555372   17.083204
     949.500    3.566206   17.707882    1.557430   17.082060
     954.500    3.565366   17.706676    1.559441   17.081110
     959.500    3.564544   17.705515    1.561177   17.080203
     964.500    3.563743   17.706052    1.562734   17.079232
     969.500    3.562956   17.705105    1.564271   17.078517
     974.500    3.562188   17.703335    1.565724   17.077990
     979.500    3.561437   17.703456    1.567104   17.077086
     984.500    3.560695   17.703634    1.568427   17.076873
     989.500    3.559967   17.703756    1.569657   17.076028
     994.500    3.559253   17.701643    1.570783   17.075446
     999.500    3.558552   17.700768    1.571784   17.074959
    1019.500    3.555862   17.699920    1.574845   17.073711
    1039.500    3.553351   17.700182    1.576998   17.072714
    1059.500    3.550967   17.699574    1.578562   17.071250
    1079.500    3.548650   17.699345    1.579350   17.070098
    1099.500    3.546421   17.700362    1.579656   17.068368
    1119.500    3.544271   17.697426    1.579598   17.067939
    1139.500    3.542176   17.698939    1.579175   17.067678
    1159.500    3.540139   17.696238    1.578033   17.067702
    1179.500    3.538100   17.697889    1.576118   17.067867
    1199.500    3.536095   17.698094    1.574447   17.067132
    1219.500    3.534135   17.698247    1.572471   17.066217
    1239.500    3.532206   17.697646    1.570304   17.065803
    1259.500    3.530299   17.697720    1.568032   17.065801
    1279.500    3.528409   17.701243    1.565631   17.066753
    1299.500    3.526501   17.701259    1.563076   17.066691
    1319.500    3.524624   17.700344    1.560410   17.066192
    1339.500    3.522757   17.699721    1.557673   17.065615
    1359.500    3.520903   17.699411    1.554895   17.065285
    1379.500    3.519070   17.699785    1.552113   17.065556
    1399.500    3.517248   17.699883    1.549288   17.065999
    1419.500    3.515449   17.699472    1.546440   17.065821
    1439.500    3.513668   17.699326    1.543596   17.065132
    1459.500    3.511915   17.698302    1.540817   17.064281
    1479.500    3.510180   17.697773    1.538090   17.064070
    1499.500    3.508466   17.699499    1.535426   17.064490
    1519.500    3.506771   17.696846    1.532783   17.065003
    1539.500    3.505048   17.697464    1.530137   17.065213
    1559.500    3.503338   17.699020    1.527582   17.064596
    1579.500    3.501629   17.697927    1.525076   17.063730
    1599.500    3.499946   17.697540    1.522652   17.063606
    1619.500    3.498293   17.696133    1.520300   17.063871
    1639.500    3.496716   17.696409    1.518195   17.063364
    1659.500    3.495181   17.694758    1.516284   17.062813
    1679.500    3.493695   17.693192    1.514431   17.061660
    1699.500    3.492248   17.694437    1.512637   17.061067
    1719.500    3.490837   17.695257    1.510886   17.061028
    1739.500    3.489467   17.695305    1.509222   17.061018
    1759.500    3.488130   17.694757    1.507592   17.060668
    1779.500    3.486847   17.695197    1.506100   17.059501
    1799.500    3.485584   17.693856    1.504675   17.058882
    1819.500    3.484330   17.692568    1.503328   17.058511
    1839.500    3.483117   17.693834    1.502053   17.058752
    1859.500    3.481947   17.693335    1.500762   17.058640
    1879.500    3.480810   17.691838    1.499562   17.058240
    1899.500    3.479717   17.692734    1.498393   17.056982
    1919.500    3.478679   17.694221    1.497425   17.055754
    1939.500    3.477670   17.694363    1.496586   17.055519
    1959.500    3.476714   17.693846    1.495861   17.055478
    1979.500    3.475793   17.694720    1.495162   17.055344
    1999.500    3.474910   17.693571    1.494426   17.054654
    2049.500    3.472986   17.691958    1.493836   17.052175
    2099.500    3.471333   17.692713    1.494114   17.052033
    2149.500    3.469878   17.690204    1.494215   17.049466
    2199.500    3.468659   17.689429    1.494506   17.049936
    2249.500    3.467604   17.688137    1.494664   17.047959
    2299.500    3.466734   17.690097    1.495818   17.047607
    2349.500    3.466021   17.688638    1.496866   17.046604
    2399.500    3.465466   17.689194    1.497896   17.045845
    2449.500    3.465097   17.688927    1.498868   17.045076
    2499.500    3.464724   17.686361    1.498760   17.044510
    2549.500    3.464260   17.688507    1.497749   17.045764
    2599.500    3.463856   17.686795    1.496743   17.044049
    2649.500    3.463547   17.690768    1.496343   17.044939
    2699.500    3.463327   17.689552    1.496109   17.043758
    2749.500    3.463154   17.690133    1.496101   17.043899
    2799.500    3.463015   17.687826    1.496142   17.043568
    2849.500    3.462927   17.688791    1.496342   17.043147
    2899.500    3.462942   17.688587    1.496960   17.043593
    2949.500    3.463024   17.688767    1.497704   17.042244
    2999.500    3.463144   17.688084    1.498420   17.043166
    3049.500    3.463336   17.688724    1.499239   17.042120
    3099.500    3.463354   17.688671    1.498802   17.043512
    3149.500    3.463327   17.689541    1.498316   17.043048
    3199.500    3.463303   17.689597    1.498114   17.043272
    3249.500    3.463277   17.687799    1.497990   17.043447
    3299.500    3.463266   17.688835    1.497746   17.042596
    3349.500    3.463116   17.690027    1.496665   17.044233
    3399.500    3.462923   17.689489    1.495458   17.043186
    3449.500    3.462698   17.690105    1.494617   17.044496
    3499.500    3.462473   17.688403    1.493881   17.043276
    3549.500    3.462263   17.689346    1.493416   17.043989
    3599.500    3.462061   17.689750    1.492969   17.043648
    3649.500    3.461874   17.689283    1.492688   17.043489
    3699.500    3.461696   17.689095    1.492402   17.043958
    3749.500    3.461545   17.688893    1.492225   17.042812
    3799.500    3.461398   17.689400    1.492139   17.043963
