 % time (yr) / global total Ca (mol) / global mean Ca (mol kg-1) / surface (ice-free) Ca (mol kg-1) / benthic [> 2000 m] Ca (mol kg-1) / surface Ca (mol kg-1)
       0.500  0.149416978919E+20  0.102500E-01  0.102476E-01  0.102501E-01  0.102476E-01
       1.500  0.149416988429E+20  0.102501E-01  0.102442E-01  0.102503E-01  0.102442E-01
       2.500  0.149416999614E+20  0.102501E-01  0.102417E-01  0.102504E-01  0.102417E-01
       3.500  0.149417008028E+20  0.102501E-01  0.102393E-01  0.102505E-01  0.102393E-01
       4.500  0.149417014301E+20  0.102501E-01  0.102371E-01  0.102506E-01  0.102371E-01
       5.500  0.149417019150E+20  0.102501E-01  0.102350E-01  0.102508E-01  0.102350E-01
       6.500  0.149417023118E+20  0.102501E-01  0.102330E-01  0.102509E-01  0.102330E-01
       7.500  0.149417026670E+20  0.102501E-01  0.102311E-01  0.102510E-01  0.102311E-01
       8.500  0.149417029848E+20  0.102501E-01  0.102295E-01  0.102511E-01  0.102295E-01
       9.500  0.149417032648E+20  0.102501E-01  0.102280E-01  0.102512E-01  0.102280E-01
      10.500  0.149417035106E+20  0.102501E-01  0.102267E-01  0.102513E-01  0.102267E-01
      11.500  0.149417037230E+20  0.102501E-01  0.102255E-01  0.102514E-01  0.102255E-01
      12.500  0.149417039104E+20  0.102501E-01  0.102243E-01  0.102515E-01  0.102243E-01
      13.500  0.149417040742E+20  0.102501E-01  0.102230E-01  0.102516E-01  0.102231E-01
      14.500  0.149417042206E+20  0.102501E-01  0.102219E-01  0.102517E-01  0.102219E-01
      15.500  0.149417043480E+20  0.102501E-01  0.102207E-01  0.102518E-01  0.102209E-01
      16.500  0.149417044585E+20  0.102501E-01  0.102197E-01  0.102519E-01  0.102198E-01
      17.500  0.149417045547E+20  0.102501E-01  0.102187E-01  0.102520E-01  0.102189E-01
      18.500  0.149417046364E+20  0.102501E-01  0.102179E-01  0.102521E-01  0.102181E-01
      19.500  0.149417047071E+20  0.102501E-01  0.102171E-01  0.102522E-01  0.102173E-01
      21.500  0.149417048165E+20  0.102501E-01  0.102157E-01  0.102524E-01  0.102160E-01
      23.500  0.149417048920E+20  0.102501E-01  0.102146E-01  0.102525E-01  0.102149E-01
      25.500  0.149417049439E+20  0.102501E-01  0.102136E-01  0.102527E-01  0.102139E-01
      27.500  0.149417049758E+20  0.102501E-01  0.102128E-01  0.102528E-01  0.102130E-01
      29.500  0.149417049970E+20  0.102501E-01  0.102121E-01  0.102530E-01  0.102122E-01
      31.500  0.149417050054E+20  0.102501E-01  0.102116E-01  0.102531E-01  0.102115E-01
      33.500  0.149417050124E+20  0.102501E-01  0.102110E-01  0.102532E-01  0.102108E-01
      35.500  0.149417050208E+20  0.102501E-01  0.102105E-01  0.102533E-01  0.102101E-01
      37.500  0.149417050253E+20  0.102501E-01  0.102101E-01  0.102534E-01  0.102095E-01
      39.500  0.149417050249E+20  0.102501E-01  0.102097E-01  0.102535E-01  0.102090E-01
      41.500  0.149417050208E+20  0.102501E-01  0.102094E-01  0.102536E-01  0.102085E-01
      43.500  0.149417050156E+20  0.102501E-01  0.102091E-01  0.102537E-01  0.102081E-01
      45.500  0.149417050095E+20  0.102501E-01  0.102089E-01  0.102538E-01  0.102078E-01
      47.500  0.149417050070E+20  0.102501E-01  0.102087E-01  0.102539E-01  0.102075E-01
      49.500  0.149417050124E+20  0.102501E-01  0.102086E-01  0.102539E-01  0.102072E-01
      51.500  0.149417050239E+20  0.102501E-01  0.102084E-01  0.102540E-01  0.102069E-01
      53.500  0.149417050357E+20  0.102501E-01  0.102081E-01  0.102541E-01  0.102065E-01
      55.500  0.149417050451E+20  0.102501E-01  0.102078E-01  0.102542E-01  0.102061E-01
      57.500  0.149417050512E+20  0.102501E-01  0.102075E-01  0.102543E-01  0.102056E-01
      59.500  0.149417050544E+20  0.102501E-01  0.102071E-01  0.102545E-01  0.102052E-01
      61.500  0.149417050550E+20  0.102501E-01  0.102067E-01  0.102546E-01  0.102047E-01
      63.500  0.149417050530E+20  0.102501E-01  0.102064E-01  0.102547E-01  0.102042E-01
      65.500  0.149417050472E+20  0.102501E-01  0.102061E-01  0.102548E-01  0.102038E-01
      67.500  0.149417050394E+20  0.102501E-01  0.102058E-01  0.102549E-01  0.102034E-01
      69.500  0.149417050304E+20  0.102501E-01  0.102055E-01  0.102551E-01  0.102030E-01
      71.500  0.149417050199E+20  0.102501E-01  0.102052E-01  0.102552E-01  0.102027E-01
      73.500  0.149417050059E+20  0.102501E-01  0.102050E-01  0.102553E-01  0.102024E-01
      75.500  0.149417049909E+20  0.102501E-01  0.102048E-01  0.102554E-01  0.102021E-01
      77.500  0.149417049767E+20  0.102501E-01  0.102047E-01  0.102555E-01  0.102018E-01
      79.500  0.149417049631E+20  0.102501E-01  0.102045E-01  0.102556E-01  0.102016E-01
      81.500  0.149417049504E+20  0.102501E-01  0.102044E-01  0.102557E-01  0.102014E-01
      83.500  0.149417049398E+20  0.102501E-01  0.102043E-01  0.102557E-01  0.102012E-01
      85.500  0.149417049295E+20  0.102501E-01  0.102042E-01  0.102558E-01  0.102011E-01
      87.500  0.149417049177E+20  0.102501E-01  0.102042E-01  0.102558E-01  0.102009E-01
      89.500  0.149417049063E+20  0.102501E-01  0.102041E-01  0.102559E-01  0.102008E-01
      91.500  0.149417048948E+20  0.102501E-01  0.102040E-01  0.102559E-01  0.102006E-01
      93.500  0.149417048833E+20  0.102501E-01  0.102040E-01  0.102560E-01  0.102005E-01
      95.500  0.149417048726E+20  0.102501E-01  0.102039E-01  0.102560E-01  0.102003E-01
      97.500  0.149417048623E+20  0.102501E-01  0.102038E-01  0.102560E-01  0.102002E-01
      99.500  0.149417048521E+20  0.102501E-01  0.102038E-01  0.102560E-01  0.102001E-01
     104.500  0.149417048266E+20  0.102501E-01  0.102036E-01  0.102561E-01  0.101998E-01
     109.500  0.149417048031E+20  0.102501E-01  0.102035E-01  0.102561E-01  0.101995E-01
     114.500  0.149417047819E+20  0.102501E-01  0.102034E-01  0.102561E-01  0.101992E-01
     119.500  0.149417047645E+20  0.102501E-01  0.102032E-01  0.102561E-01  0.101989E-01
     124.500  0.149417047470E+20  0.102501E-01  0.102031E-01  0.102562E-01  0.101986E-01
     129.500  0.149417047307E+20  0.102501E-01  0.102030E-01  0.102562E-01  0.101984E-01
     134.500  0.149417047130E+20  0.102501E-01  0.102028E-01  0.102562E-01  0.101981E-01
     139.500  0.149417046960E+20  0.102501E-01  0.102028E-01  0.102563E-01  0.101979E-01
     144.500  0.149417046798E+20  0.102501E-01  0.102027E-01  0.102563E-01  0.101977E-01
     149.500  0.149417046655E+20  0.102501E-01  0.102026E-01  0.102564E-01  0.101975E-01
     154.500  0.149417046527E+20  0.102501E-01  0.102025E-01  0.102564E-01  0.101973E-01
     159.500  0.149417046416E+20  0.102501E-01  0.102024E-01  0.102565E-01  0.101971E-01
     164.500  0.149417046320E+20  0.102501E-01  0.102022E-01  0.102566E-01  0.101968E-01
     169.500  0.149417046235E+20  0.102501E-01  0.102021E-01  0.102566E-01  0.101966E-01
     174.500  0.149417046151E+20  0.102501E-01  0.102019E-01  0.102567E-01  0.101963E-01
     179.500  0.149417046077E+20  0.102501E-01  0.102017E-01  0.102568E-01  0.101960E-01
     184.500  0.149417046016E+20  0.102501E-01  0.102015E-01  0.102569E-01  0.101957E-01
     189.500  0.149417045966E+20  0.102501E-01  0.102013E-01  0.102570E-01  0.101954E-01
     194.500  0.149417045925E+20  0.102501E-01  0.102010E-01  0.102571E-01  0.101951E-01
     199.500  0.149417045876E+20  0.102501E-01  0.102008E-01  0.102572E-01  0.101948E-01
     204.500  0.149417045850E+20  0.102501E-01  0.102006E-01  0.102573E-01  0.101944E-01
     209.500  0.149417045819E+20  0.102501E-01  0.102003E-01  0.102574E-01  0.101941E-01
     214.500  0.149417045802E+20  0.102501E-01  0.102001E-01  0.102574E-01  0.101938E-01
     219.500  0.149417045793E+20  0.102501E-01  0.101998E-01  0.102575E-01  0.101935E-01
     224.500  0.149417045789E+20  0.102501E-01  0.101995E-01  0.102576E-01  0.101931E-01
     229.500  0.149417045792E+20  0.102501E-01  0.101993E-01  0.102576E-01  0.101928E-01
     234.500  0.149417045798E+20  0.102501E-01  0.101990E-01  0.102577E-01  0.101925E-01
     239.500  0.149417045819E+20  0.102501E-01  0.101987E-01  0.102577E-01  0.101922E-01
     244.500  0.149417045834E+20  0.102501E-01  0.101984E-01  0.102578E-01  0.101918E-01
     249.500  0.149417045863E+20  0.102501E-01  0.101981E-01  0.102578E-01  0.101915E-01
     254.500  0.149417045895E+20  0.102501E-01  0.101978E-01  0.102578E-01  0.101912E-01
     259.500  0.149417045934E+20  0.102501E-01  0.101975E-01  0.102578E-01  0.101908E-01
     264.500  0.149417045966E+20  0.102501E-01  0.101972E-01  0.102579E-01  0.101905E-01
     269.500  0.149417046008E+20  0.102501E-01  0.101969E-01  0.102579E-01  0.101901E-01
     274.500  0.149417046046E+20  0.102501E-01  0.101966E-01  0.102579E-01  0.101898E-01
     279.500  0.149417046086E+20  0.102501E-01  0.101963E-01  0.102579E-01  0.101894E-01
     284.500  0.149417046125E+20  0.102501E-01  0.101960E-01  0.102578E-01  0.101891E-01
     289.500  0.149417046164E+20  0.102501E-01  0.101957E-01  0.102578E-01  0.101887E-01
     294.500  0.149417046203E+20  0.102501E-01  0.101953E-01  0.102578E-01  0.101884E-01
     299.500  0.149417046252E+20  0.102501E-01  0.101950E-01  0.102577E-01  0.101881E-01
     304.500  0.149417046301E+20  0.102501E-01  0.101947E-01  0.102577E-01  0.101877E-01
     309.500  0.149417046353E+20  0.102501E-01  0.101944E-01  0.102577E-01  0.101874E-01
     314.500  0.149417046395E+20  0.102501E-01  0.101940E-01  0.102576E-01  0.101870E-01
     319.500  0.149417046440E+20  0.102501E-01  0.101937E-01  0.102576E-01  0.101867E-01
     324.500  0.149417046492E+20  0.102501E-01  0.101934E-01  0.102575E-01  0.101863E-01
     329.500  0.149417046544E+20  0.102501E-01  0.101931E-01  0.102575E-01  0.101860E-01
     334.500  0.149417046594E+20  0.102501E-01  0.101928E-01  0.102574E-01  0.101856E-01
     339.500  0.149417046643E+20  0.102501E-01  0.101924E-01  0.102574E-01  0.101853E-01
     344.500  0.149417046702E+20  0.102501E-01  0.101921E-01  0.102573E-01  0.101849E-01
     349.500  0.149417046751E+20  0.102501E-01  0.101918E-01  0.102573E-01  0.101846E-01
     354.500  0.149417046808E+20  0.102501E-01  0.101915E-01  0.102573E-01  0.101842E-01
     359.500  0.149417046886E+20  0.102501E-01  0.101911E-01  0.102572E-01  0.101839E-01
     364.500  0.149417046943E+20  0.102501E-01  0.101908E-01  0.102572E-01  0.101836E-01
     369.500  0.149417047003E+20  0.102501E-01  0.101905E-01  0.102571E-01  0.101832E-01
     374.500  0.149417047062E+20  0.102501E-01  0.101902E-01  0.102571E-01  0.101829E-01
     379.500  0.149417047124E+20  0.102501E-01  0.101899E-01  0.102570E-01  0.101826E-01
     384.500  0.149417047179E+20  0.102501E-01  0.101896E-01  0.102570E-01  0.101823E-01
     389.500  0.149417047238E+20  0.102501E-01  0.101893E-01  0.102570E-01  0.101820E-01
     394.500  0.149417047290E+20  0.102501E-01  0.101890E-01  0.102569E-01  0.101816E-01
     399.500  0.149417047350E+20  0.102501E-01  0.101887E-01  0.102569E-01  0.101813E-01
     404.500  0.149417047418E+20  0.102501E-01  0.101884E-01  0.102569E-01  0.101810E-01
     409.500  0.149417047484E+20  0.102501E-01  0.101881E-01  0.102568E-01  0.101807E-01
     414.500  0.149417047559E+20  0.102501E-01  0.101878E-01  0.102568E-01  0.101804E-01
     419.500  0.149417047638E+20  0.102501E-01  0.101875E-01  0.102568E-01  0.101800E-01
     424.500  0.149417047707E+20  0.102501E-01  0.101872E-01  0.102568E-01  0.101797E-01
     429.500  0.149417047770E+20  0.102501E-01  0.101869E-01  0.102568E-01  0.101794E-01
     434.500  0.149417047839E+20  0.102501E-01  0.101866E-01  0.102567E-01  0.101791E-01
     439.500  0.149417047905E+20  0.102501E-01  0.101863E-01  0.102567E-01  0.101788E-01
     444.500  0.149417047968E+20  0.102501E-01  0.101860E-01  0.102567E-01  0.101785E-01
     449.500  0.149417048026E+20  0.102501E-01  0.101858E-01  0.102567E-01  0.101782E-01
     454.500  0.149417048082E+20  0.102501E-01  0.101855E-01  0.102567E-01  0.101779E-01
     459.500  0.149417048145E+20  0.102501E-01  0.101852E-01  0.102567E-01  0.101776E-01
     464.500  0.149417048209E+20  0.102501E-01  0.101850E-01  0.102568E-01  0.101774E-01
     469.500  0.149417048269E+20  0.102501E-01  0.101847E-01  0.102568E-01  0.101771E-01
     474.500  0.149417048327E+20  0.102501E-01  0.101845E-01  0.102568E-01  0.101768E-01
     479.500  0.149417048392E+20  0.102501E-01  0.101842E-01  0.102568E-01  0.101766E-01
     484.500  0.149417048450E+20  0.102501E-01  0.101840E-01  0.102569E-01  0.101763E-01
     489.500  0.149417048506E+20  0.102501E-01  0.101837E-01  0.102569E-01  0.101761E-01
     494.500  0.149417048558E+20  0.102501E-01  0.101835E-01  0.102570E-01  0.101758E-01
     499.500  0.149417048619E+20  0.102501E-01  0.101832E-01  0.102570E-01  0.101756E-01
     504.500  0.149417048678E+20  0.102501E-01  0.101830E-01  0.102571E-01  0.101754E-01
     509.500  0.149417048735E+20  0.102501E-01  0.101828E-01  0.102571E-01  0.101751E-01
     514.500  0.149417048795E+20  0.102501E-01  0.101825E-01  0.102572E-01  0.101749E-01
     519.500  0.149417048849E+20  0.102501E-01  0.101823E-01  0.102572E-01  0.101746E-01
     524.500  0.149417048910E+20  0.102501E-01  0.101821E-01  0.102573E-01  0.101744E-01
     529.500  0.149417048966E+20  0.102501E-01  0.101818E-01  0.102574E-01  0.101742E-01
     534.500  0.149417049024E+20  0.102501E-01  0.101816E-01  0.102574E-01  0.101739E-01
     539.500  0.149417049079E+20  0.102501E-01  0.101814E-01  0.102575E-01  0.101737E-01
     544.500  0.149417049144E+20  0.102501E-01  0.101812E-01  0.102576E-01  0.101735E-01
     549.500  0.149417049221E+20  0.102501E-01  0.101809E-01  0.102577E-01  0.101733E-01
     554.500  0.149417049284E+20  0.102501E-01  0.101807E-01  0.102578E-01  0.101731E-01
     559.500  0.149417049341E+20  0.102501E-01  0.101805E-01  0.102579E-01  0.101729E-01
     564.500  0.149417049410E+20  0.102501E-01  0.101803E-01  0.102580E-01  0.101726E-01
     569.500  0.149417049478E+20  0.102501E-01  0.101801E-01  0.102581E-01  0.101724E-01
     574.500  0.149417049539E+20  0.102501E-01  0.101799E-01  0.102582E-01  0.101722E-01
     579.500  0.149417049604E+20  0.102501E-01  0.101797E-01  0.102583E-01  0.101720E-01
     584.500  0.149417049670E+20  0.102501E-01  0.101794E-01  0.102584E-01  0.101718E-01
     589.500  0.149417049731E+20  0.102501E-01  0.101792E-01  0.102585E-01  0.101716E-01
     594.500  0.149417049792E+20  0.102501E-01  0.101790E-01  0.102586E-01  0.101714E-01
     599.500  0.149417049856E+20  0.102501E-01  0.101788E-01  0.102588E-01  0.101712E-01
     604.500  0.149417049917E+20  0.102501E-01  0.101786E-01  0.102589E-01  0.101710E-01
     609.500  0.149417049972E+20  0.102501E-01  0.101784E-01  0.102590E-01  0.101708E-01
     614.500  0.149417050035E+20  0.102501E-01  0.101782E-01  0.102591E-01  0.101706E-01
     619.500  0.149417050095E+20  0.102501E-01  0.101780E-01  0.102593E-01  0.101704E-01
     624.500  0.149417050158E+20  0.102501E-01  0.101778E-01  0.102594E-01  0.101702E-01
     629.500  0.149417050224E+20  0.102501E-01  0.101776E-01  0.102595E-01  0.101700E-01
     634.500  0.149417050281E+20  0.102501E-01  0.101775E-01  0.102597E-01  0.101699E-01
     639.500  0.149417050349E+20  0.102501E-01  0.101773E-01  0.102598E-01  0.101697E-01
     644.500  0.149417050411E+20  0.102501E-01  0.101771E-01  0.102600E-01  0.101695E-01
     649.500  0.149417050494E+20  0.102501E-01  0.101769E-01  0.102601E-01  0.101693E-01
     654.500  0.149417050564E+20  0.102501E-01  0.101767E-01  0.102602E-01  0.101691E-01
     659.500  0.149417050641E+20  0.102501E-01  0.101765E-01  0.102604E-01  0.101689E-01
     664.500  0.149417050728E+20  0.102501E-01  0.101763E-01  0.102605E-01  0.101687E-01
     669.500  0.149417050803E+20  0.102501E-01  0.101761E-01  0.102607E-01  0.101685E-01
     674.500  0.149417050880E+20  0.102501E-01  0.101759E-01  0.102608E-01  0.101683E-01
     679.500  0.149417050988E+20  0.102501E-01  0.101757E-01  0.102610E-01  0.101681E-01
     684.500  0.149417051069E+20  0.102501E-01  0.101755E-01  0.102612E-01  0.101679E-01
     689.500  0.149417051148E+20  0.102501E-01  0.101753E-01  0.102613E-01  0.101676E-01
     694.500  0.149417051229E+20  0.102501E-01  0.101751E-01  0.102615E-01  0.101674E-01
     699.500  0.149417051307E+20  0.102502E-01  0.101749E-01  0.102616E-01  0.101672E-01
     704.500  0.149417051390E+20  0.102502E-01  0.101747E-01  0.102618E-01  0.101670E-01
     709.500  0.149417051480E+20  0.102502E-01  0.101745E-01  0.102620E-01  0.101668E-01
     714.500  0.149417051554E+20  0.102502E-01  0.101743E-01  0.102622E-01  0.101666E-01
     719.500  0.149417051634E+20  0.102502E-01  0.101742E-01  0.102624E-01  0.101664E-01
     724.500  0.149417051731E+20  0.102502E-01  0.101739E-01  0.102626E-01  0.101662E-01
     729.500  0.149417051822E+20  0.102502E-01  0.101738E-01  0.102627E-01  0.101660E-01
     734.500  0.149417051922E+20  0.102502E-01  0.101736E-01  0.102630E-01  0.101658E-01
     739.500  0.149417052034E+20  0.102502E-01  0.101734E-01  0.102632E-01  0.101657E-01
     744.500  0.149417052140E+20  0.102502E-01  0.101732E-01  0.102634E-01  0.101654E-01
     749.500  0.149417052267E+20  0.102502E-01  0.101730E-01  0.102636E-01  0.101652E-01
     754.500  0.149417052378E+20  0.102502E-01  0.101728E-01  0.102638E-01  0.101649E-01
     759.500  0.149417052496E+20  0.102502E-01  0.101725E-01  0.102640E-01  0.101646E-01
     764.500  0.149417052625E+20  0.102502E-01  0.101723E-01  0.102643E-01  0.101644E-01
     769.500  0.149417052736E+20  0.102502E-01  0.101721E-01  0.102645E-01  0.101641E-01
     774.500  0.149417052862E+20  0.102502E-01  0.101718E-01  0.102647E-01  0.101638E-01
     779.500  0.149417052984E+20  0.102502E-01  0.101716E-01  0.102650E-01  0.101636E-01
     784.500  0.149417053102E+20  0.102502E-01  0.101714E-01  0.102652E-01  0.101633E-01
     789.500  0.149417053218E+20  0.102502E-01  0.101711E-01  0.102655E-01  0.101630E-01
     794.500  0.149417053333E+20  0.102502E-01  0.101709E-01  0.102657E-01  0.101628E-01
     799.500  0.149417053436E+20  0.102502E-01  0.101707E-01  0.102660E-01  0.101625E-01
     804.500  0.149417053544E+20  0.102502E-01  0.101704E-01  0.102663E-01  0.101623E-01
     809.500  0.149417053641E+20  0.102502E-01  0.101702E-01  0.102665E-01  0.101620E-01
     814.500  0.149417053765E+20  0.102502E-01  0.101699E-01  0.102668E-01  0.101617E-01
     819.500  0.149417053861E+20  0.102502E-01  0.101697E-01  0.102671E-01  0.101615E-01
     824.500  0.149417053963E+20  0.102502E-01  0.101694E-01  0.102674E-01  0.101612E-01
     829.500  0.149417054058E+20  0.102502E-01  0.101692E-01  0.102677E-01  0.101609E-01
     834.500  0.149417054165E+20  0.102502E-01  0.101689E-01  0.102681E-01  0.101607E-01
     839.500  0.149417054245E+20  0.102502E-01  0.101687E-01  0.102684E-01  0.101604E-01
     844.500  0.149417054333E+20  0.102502E-01  0.101684E-01  0.102687E-01  0.101601E-01
     849.500  0.149417054425E+20  0.102502E-01  0.101682E-01  0.102690E-01  0.101599E-01
     854.500  0.149417054513E+20  0.102502E-01  0.101679E-01  0.102694E-01  0.101596E-01
     859.500  0.149417054595E+20  0.102502E-01  0.101676E-01  0.102697E-01  0.101593E-01
     864.500  0.149417054681E+20  0.102502E-01  0.101674E-01  0.102700E-01  0.101591E-01
     869.500  0.149417054759E+20  0.102502E-01  0.101671E-01  0.102704E-01  0.101588E-01
     874.500  0.149417054839E+20  0.102502E-01  0.101668E-01  0.102707E-01  0.101585E-01
     879.500  0.149417054907E+20  0.102502E-01  0.101665E-01  0.102711E-01  0.101582E-01
     884.500  0.149417054986E+20  0.102502E-01  0.101663E-01  0.102714E-01  0.101580E-01
     889.500  0.149417055070E+20  0.102502E-01  0.101660E-01  0.102717E-01  0.101577E-01
     894.500  0.149417055168E+20  0.102502E-01  0.101657E-01  0.102721E-01  0.101574E-01
     899.500  0.149417055248E+20  0.102502E-01  0.101654E-01  0.102724E-01  0.101571E-01
     904.500  0.149417055322E+20  0.102502E-01  0.101651E-01  0.102728E-01  0.101568E-01
     909.500  0.149417055380E+20  0.102502E-01  0.101649E-01  0.102731E-01  0.101565E-01
