 % time (yr) / global total Mg (mol) / global mean Mg (mol kg-1) / surface (ice-free) Mg (mol kg-1) / benthic [> 2000 m] Mg (mol kg-1) / surface Mg (mol kg-1)
       0.500  0.769972012498E+20  0.528203E-01  0.528222E-01  0.528203E-01  0.528222E-01
       1.500  0.769972012498E+20  0.528203E-01  0.528251E-01  0.528203E-01  0.528251E-01
       2.500  0.769972012498E+20  0.528204E-01  0.528252E-01  0.528204E-01  0.528252E-01
       3.500  0.769972012498E+20  0.528204E-01  0.528230E-01  0.528204E-01  0.528230E-01
       4.500  0.769972012498E+20  0.528204E-01  0.528192E-01  0.528204E-01  0.528192E-01
       5.500  0.769972012498E+20  0.528204E-01  0.528143E-01  0.528204E-01  0.528143E-01
       6.500  0.769972012498E+20  0.528204E-01  0.528089E-01  0.528204E-01  0.528089E-01
       7.500  0.769972012498E+20  0.528204E-01  0.528041E-01  0.528204E-01  0.528041E-01
       8.500  0.769972012498E+20  0.528205E-01  0.527999E-01  0.528204E-01  0.527999E-01
       9.500  0.769972012498E+20  0.528205E-01  0.527965E-01  0.528204E-01  0.527965E-01
      10.500  0.769972012498E+20  0.528205E-01  0.527934E-01  0.528205E-01  0.527934E-01
      11.500  0.769972012498E+20  0.528205E-01  0.527903E-01  0.528205E-01  0.527903E-01
      12.500  0.769972012498E+20  0.528205E-01  0.527872E-01  0.528205E-01  0.527872E-01
      13.500  0.769972012498E+20  0.528205E-01  0.527839E-01  0.528205E-01  0.527840E-01
      14.500  0.769972012498E+20  0.528205E-01  0.527808E-01  0.528205E-01  0.527808E-01
      15.500  0.769972012498E+20  0.528205E-01  0.527778E-01  0.528205E-01  0.527779E-01
      16.500  0.769972012498E+20  0.528205E-01  0.527751E-01  0.528206E-01  0.527752E-01
      17.500  0.769972012498E+20  0.528205E-01  0.527729E-01  0.528206E-01  0.527730E-01
      18.500  0.769972012498E+20  0.528205E-01  0.527710E-01  0.528207E-01  0.527711E-01
      19.500  0.769972012498E+20  0.528206E-01  0.527693E-01  0.528207E-01  0.527695E-01
      21.500  0.769972012499E+20  0.528206E-01  0.527670E-01  0.528208E-01  0.527671E-01
      23.500  0.769972012500E+20  0.528206E-01  0.527658E-01  0.528209E-01  0.527657E-01
      25.500  0.769972012502E+20  0.528206E-01  0.527650E-01  0.528209E-01  0.527645E-01
      27.500  0.769972012504E+20  0.528207E-01  0.527649E-01  0.528210E-01  0.527640E-01
      29.500  0.769972012506E+20  0.528207E-01  0.527651E-01  0.528211E-01  0.527636E-01
      31.500  0.769972012507E+20  0.528207E-01  0.527662E-01  0.528210E-01  0.527640E-01
      33.500  0.769972012507E+20  0.528207E-01  0.527669E-01  0.528210E-01  0.527640E-01
      35.500  0.769972012507E+20  0.528207E-01  0.527678E-01  0.528208E-01  0.527641E-01
      37.500  0.769972012507E+20  0.528207E-01  0.527689E-01  0.528207E-01  0.527643E-01
      39.500  0.769972012507E+20  0.528207E-01  0.527702E-01  0.528206E-01  0.527648E-01
      41.500  0.769972012507E+20  0.528207E-01  0.527718E-01  0.528204E-01  0.527656E-01
      43.500  0.769972012506E+20  0.528207E-01  0.527736E-01  0.528203E-01  0.527666E-01
      45.500  0.769972012506E+20  0.528207E-01  0.527754E-01  0.528202E-01  0.527678E-01
      47.500  0.769972012506E+20  0.528207E-01  0.527773E-01  0.528200E-01  0.527690E-01
      49.500  0.769972012506E+20  0.528207E-01  0.527792E-01  0.528198E-01  0.527703E-01
      51.500  0.769972012506E+20  0.528207E-01  0.527810E-01  0.528197E-01  0.527714E-01
      53.500  0.769972012506E+20  0.528207E-01  0.527822E-01  0.528195E-01  0.527721E-01
      55.500  0.769972012506E+20  0.528207E-01  0.527833E-01  0.528194E-01  0.527726E-01
      57.500  0.769972012506E+20  0.528207E-01  0.527842E-01  0.528194E-01  0.527728E-01
      59.500  0.769972012506E+20  0.528207E-01  0.527848E-01  0.528193E-01  0.527729E-01
      61.500  0.769972012506E+20  0.528207E-01  0.527853E-01  0.528193E-01  0.527729E-01
      63.500  0.769972012506E+20  0.528207E-01  0.527860E-01  0.528193E-01  0.527730E-01
      65.500  0.769972012506E+20  0.528207E-01  0.527867E-01  0.528193E-01  0.527732E-01
      67.500  0.769972012506E+20  0.528207E-01  0.527874E-01  0.528193E-01  0.527734E-01
      69.500  0.769972012506E+20  0.528207E-01  0.527883E-01  0.528193E-01  0.527738E-01
      71.500  0.769972012506E+20  0.528207E-01  0.527893E-01  0.528193E-01  0.527744E-01
      73.500  0.769972012506E+20  0.528207E-01  0.527905E-01  0.528193E-01  0.527751E-01
      75.500  0.769972012506E+20  0.528207E-01  0.527918E-01  0.528192E-01  0.527759E-01
      77.500  0.769972012506E+20  0.528207E-01  0.527932E-01  0.528191E-01  0.527768E-01
      79.500  0.769972012506E+20  0.528207E-01  0.527947E-01  0.528189E-01  0.527778E-01
      81.500  0.769972012506E+20  0.528207E-01  0.527962E-01  0.528187E-01  0.527789E-01
      83.500  0.769972012506E+20  0.528207E-01  0.527979E-01  0.528185E-01  0.527801E-01
      85.500  0.769972012506E+20  0.528207E-01  0.527995E-01  0.528182E-01  0.527813E-01
      87.500  0.769972012506E+20  0.528207E-01  0.528012E-01  0.528179E-01  0.527826E-01
      89.500  0.769972012506E+20  0.528207E-01  0.528029E-01  0.528175E-01  0.527838E-01
      91.500  0.769972012506E+20  0.528207E-01  0.528045E-01  0.528172E-01  0.527850E-01
      93.500  0.769972012506E+20  0.528207E-01  0.528062E-01  0.528168E-01  0.527862E-01
      95.500  0.769972012506E+20  0.528207E-01  0.528078E-01  0.528164E-01  0.527874E-01
      97.500  0.769972012506E+20  0.528207E-01  0.528093E-01  0.528160E-01  0.527886E-01
      99.500  0.769972012506E+20  0.528207E-01  0.528109E-01  0.528155E-01  0.527898E-01
     104.500  0.769972012506E+20  0.528207E-01  0.528148E-01  0.528144E-01  0.527927E-01
     109.500  0.769972012506E+20  0.528207E-01  0.528184E-01  0.528133E-01  0.527955E-01
     114.500  0.769972012506E+20  0.528207E-01  0.528220E-01  0.528121E-01  0.527982E-01
     119.500  0.769972012506E+20  0.528207E-01  0.528255E-01  0.528111E-01  0.528009E-01
     124.500  0.769972012506E+20  0.528207E-01  0.528288E-01  0.528101E-01  0.528034E-01
     129.500  0.769972012506E+20  0.528207E-01  0.528318E-01  0.528092E-01  0.528058E-01
     134.500  0.769972012506E+20  0.528207E-01  0.528348E-01  0.528083E-01  0.528082E-01
     139.500  0.769972012506E+20  0.528207E-01  0.528379E-01  0.528075E-01  0.528105E-01
     144.500  0.769972012506E+20  0.528207E-01  0.528407E-01  0.528069E-01  0.528128E-01
     149.500  0.769972012506E+20  0.528207E-01  0.528434E-01  0.528063E-01  0.528149E-01
     154.500  0.769972012506E+20  0.528207E-01  0.528461E-01  0.528058E-01  0.528170E-01
     159.500  0.769972012506E+20  0.528207E-01  0.528484E-01  0.528053E-01  0.528187E-01
     164.500  0.769972012506E+20  0.528207E-01  0.528505E-01  0.528049E-01  0.528202E-01
     169.500  0.769972012506E+20  0.528207E-01  0.528522E-01  0.528046E-01  0.528215E-01
     174.500  0.769972012506E+20  0.528207E-01  0.528539E-01  0.528044E-01  0.528226E-01
     179.500  0.769972012506E+20  0.528207E-01  0.528555E-01  0.528043E-01  0.528237E-01
     184.500  0.769972012506E+20  0.528207E-01  0.528568E-01  0.528041E-01  0.528245E-01
     189.500  0.769972012506E+20  0.528207E-01  0.528580E-01  0.528041E-01  0.528253E-01
     194.500  0.769972012506E+20  0.528207E-01  0.528591E-01  0.528040E-01  0.528260E-01
     199.500  0.769972012506E+20  0.528207E-01  0.528602E-01  0.528040E-01  0.528266E-01
     204.500  0.769972012506E+20  0.528207E-01  0.528611E-01  0.528040E-01  0.528271E-01
     209.500  0.769972012506E+20  0.528207E-01  0.528620E-01  0.528040E-01  0.528275E-01
     214.500  0.769972012506E+20  0.528207E-01  0.528628E-01  0.528040E-01  0.528279E-01
     219.500  0.769972012506E+20  0.528207E-01  0.528634E-01  0.528040E-01  0.528282E-01
     224.500  0.769972012505E+20  0.528207E-01  0.528640E-01  0.528039E-01  0.528284E-01
     229.500  0.769972012506E+20  0.528207E-01  0.528644E-01  0.528039E-01  0.528286E-01
     234.500  0.769972012505E+20  0.528207E-01  0.528649E-01  0.528038E-01  0.528287E-01
     239.500  0.769972012505E+20  0.528207E-01  0.528652E-01  0.528037E-01  0.528288E-01
     244.500  0.769972012505E+20  0.528207E-01  0.528655E-01  0.528035E-01  0.528288E-01
     249.500  0.769972012505E+20  0.528207E-01  0.528657E-01  0.528034E-01  0.528287E-01
     254.500  0.769972012505E+20  0.528207E-01  0.528658E-01  0.528032E-01  0.528286E-01
     259.500  0.769972012505E+20  0.528207E-01  0.528659E-01  0.528030E-01  0.528284E-01
     264.500  0.769972012505E+20  0.528207E-01  0.528658E-01  0.528027E-01  0.528282E-01
     269.500  0.769972012505E+20  0.528207E-01  0.528657E-01  0.528025E-01  0.528279E-01
     274.500  0.769972012505E+20  0.528207E-01  0.528655E-01  0.528022E-01  0.528275E-01
     279.500  0.769972012505E+20  0.528207E-01  0.528654E-01  0.528019E-01  0.528271E-01
     284.500  0.769972012505E+20  0.528207E-01  0.528651E-01  0.528015E-01  0.528267E-01
     289.500  0.769972012505E+20  0.528207E-01  0.528648E-01  0.528012E-01  0.528263E-01
     294.500  0.769972012505E+20  0.528207E-01  0.528645E-01  0.528008E-01  0.528258E-01
     299.500  0.769972012505E+20  0.528207E-01  0.528641E-01  0.528004E-01  0.528252E-01
     304.500  0.769972012505E+20  0.528207E-01  0.528636E-01  0.528000E-01  0.528246E-01
     309.500  0.769972012505E+20  0.528207E-01  0.528631E-01  0.527996E-01  0.528240E-01
     314.500  0.769972012505E+20  0.528207E-01  0.528626E-01  0.527992E-01  0.528233E-01
     319.500  0.769972012505E+20  0.528207E-01  0.528620E-01  0.527987E-01  0.528226E-01
     324.500  0.769972012505E+20  0.528207E-01  0.528614E-01  0.527983E-01  0.528219E-01
     329.500  0.769972012505E+20  0.528207E-01  0.528608E-01  0.527979E-01  0.528211E-01
     334.500  0.769972012505E+20  0.528207E-01  0.528601E-01  0.527975E-01  0.528203E-01
     339.500  0.769972012505E+20  0.528207E-01  0.528594E-01  0.527971E-01  0.528195E-01
     344.500  0.769972012505E+20  0.528207E-01  0.528587E-01  0.527966E-01  0.528186E-01
     349.500  0.769972012505E+20  0.528207E-01  0.528579E-01  0.527962E-01  0.528178E-01
     354.500  0.769972012505E+20  0.528207E-01  0.528571E-01  0.527958E-01  0.528169E-01
     359.500  0.769972012505E+20  0.528207E-01  0.528563E-01  0.527955E-01  0.528160E-01
     364.500  0.769972012505E+20  0.528207E-01  0.528555E-01  0.527951E-01  0.528151E-01
     369.500  0.769972012505E+20  0.528207E-01  0.528547E-01  0.527947E-01  0.528142E-01
     374.500  0.769972012505E+20  0.528207E-01  0.528539E-01  0.527944E-01  0.528133E-01
     379.500  0.769972012505E+20  0.528207E-01  0.528531E-01  0.527941E-01  0.528124E-01
     384.500  0.769972012505E+20  0.528207E-01  0.528522E-01  0.527937E-01  0.528114E-01
     389.500  0.769972012505E+20  0.528207E-01  0.528513E-01  0.527934E-01  0.528105E-01
     394.500  0.769972012505E+20  0.528207E-01  0.528504E-01  0.527931E-01  0.528096E-01
     399.500  0.769972012505E+20  0.528207E-01  0.528496E-01  0.527928E-01  0.528086E-01
     404.500  0.769972012504E+20  0.528207E-01  0.528487E-01  0.527926E-01  0.528076E-01
     409.500  0.769972012504E+20  0.528207E-01  0.528479E-01  0.527923E-01  0.528066E-01
     414.500  0.769972012504E+20  0.528208E-01  0.528470E-01  0.527921E-01  0.528056E-01
     419.500  0.769972012504E+20  0.528208E-01  0.528461E-01  0.527919E-01  0.528044E-01
     424.500  0.769972012504E+20  0.528208E-01  0.528453E-01  0.527917E-01  0.528033E-01
     429.500  0.769972012504E+20  0.528208E-01  0.528444E-01  0.527915E-01  0.528022E-01
     434.500  0.769972012504E+20  0.528208E-01  0.528435E-01  0.527913E-01  0.528011E-01
     439.500  0.769972012504E+20  0.528208E-01  0.528425E-01  0.527911E-01  0.528000E-01
     444.500  0.769972012504E+20  0.528208E-01  0.528416E-01  0.527910E-01  0.527990E-01
     449.500  0.769972012504E+20  0.528208E-01  0.528406E-01  0.527909E-01  0.527980E-01
     454.500  0.769972012504E+20  0.528208E-01  0.528398E-01  0.527908E-01  0.527971E-01
     459.500  0.769972012504E+20  0.528208E-01  0.528389E-01  0.527908E-01  0.527962E-01
     464.500  0.769972012504E+20  0.528208E-01  0.528380E-01  0.527907E-01  0.527953E-01
     469.500  0.769972012504E+20  0.528208E-01  0.528371E-01  0.527907E-01  0.527943E-01
     474.500  0.769972012504E+20  0.528208E-01  0.528361E-01  0.527908E-01  0.527934E-01
     479.500  0.769972012504E+20  0.528208E-01  0.528352E-01  0.527908E-01  0.527925E-01
     484.500  0.769972012504E+20  0.528208E-01  0.528343E-01  0.527909E-01  0.527916E-01
     489.500  0.769972012504E+20  0.528208E-01  0.528334E-01  0.527910E-01  0.527907E-01
     494.500  0.769972012504E+20  0.528208E-01  0.528324E-01  0.527911E-01  0.527897E-01
     499.500  0.769972012504E+20  0.528208E-01  0.528316E-01  0.527913E-01  0.527888E-01
     504.500  0.769972012504E+20  0.528208E-01  0.528307E-01  0.527915E-01  0.527879E-01
     509.500  0.769972012504E+20  0.528208E-01  0.528298E-01  0.527917E-01  0.527870E-01
     514.500  0.769972012504E+20  0.528208E-01  0.528289E-01  0.527919E-01  0.527861E-01
     519.500  0.769972012504E+20  0.528208E-01  0.528280E-01  0.527921E-01  0.527852E-01
     524.500  0.769972012504E+20  0.528208E-01  0.528271E-01  0.527924E-01  0.527843E-01
     529.500  0.769972012504E+20  0.528208E-01  0.528262E-01  0.527927E-01  0.527834E-01
     534.500  0.769972012504E+20  0.528208E-01  0.528254E-01  0.527930E-01  0.527825E-01
     539.500  0.769972012504E+20  0.528208E-01  0.528245E-01  0.527933E-01  0.527816E-01
     544.500  0.769972012504E+20  0.528208E-01  0.528236E-01  0.527936E-01  0.527808E-01
     549.500  0.769972012504E+20  0.528208E-01  0.528228E-01  0.527940E-01  0.527799E-01
     554.500  0.769972012504E+20  0.528208E-01  0.528219E-01  0.527944E-01  0.527791E-01
     559.500  0.769972012504E+20  0.528208E-01  0.528211E-01  0.527948E-01  0.527782E-01
     564.500  0.769972012504E+20  0.528208E-01  0.528203E-01  0.527952E-01  0.527773E-01
     569.500  0.769972012504E+20  0.528208E-01  0.528195E-01  0.527956E-01  0.527765E-01
     574.500  0.769972012504E+20  0.528208E-01  0.528186E-01  0.527961E-01  0.527756E-01
     579.500  0.769972012504E+20  0.528208E-01  0.528178E-01  0.527965E-01  0.527748E-01
     584.500  0.769972012504E+20  0.528208E-01  0.528169E-01  0.527970E-01  0.527739E-01
     589.500  0.769972012504E+20  0.528208E-01  0.528160E-01  0.527975E-01  0.527730E-01
     594.500  0.769972012504E+20  0.528208E-01  0.528151E-01  0.527980E-01  0.527721E-01
     599.500  0.769972012504E+20  0.528208E-01  0.528143E-01  0.527985E-01  0.527713E-01
     604.500  0.769972012504E+20  0.528208E-01  0.528134E-01  0.527991E-01  0.527704E-01
     609.500  0.769972012504E+20  0.528208E-01  0.528125E-01  0.527996E-01  0.527695E-01
     614.500  0.769972012504E+20  0.528208E-01  0.528117E-01  0.528002E-01  0.527687E-01
     619.500  0.769972012504E+20  0.528208E-01  0.528109E-01  0.528008E-01  0.527678E-01
     624.500  0.769972012504E+20  0.528208E-01  0.528102E-01  0.528014E-01  0.527670E-01
     629.500  0.769972012504E+20  0.528208E-01  0.528094E-01  0.528020E-01  0.527662E-01
     634.500  0.769972012504E+20  0.528208E-01  0.528086E-01  0.528026E-01  0.527654E-01
     639.500  0.769972012504E+20  0.528208E-01  0.528077E-01  0.528032E-01  0.527645E-01
     644.500  0.769972012504E+20  0.528208E-01  0.528068E-01  0.528038E-01  0.527637E-01
     649.500  0.769972012504E+20  0.528208E-01  0.528062E-01  0.528044E-01  0.527628E-01
     654.500  0.769972012504E+20  0.528208E-01  0.528053E-01  0.528050E-01  0.527619E-01
     659.500  0.769972012503E+20  0.528208E-01  0.528045E-01  0.528057E-01  0.527610E-01
     664.500  0.769972012503E+20  0.528208E-01  0.528037E-01  0.528063E-01  0.527601E-01
     669.500  0.769972012503E+20  0.528208E-01  0.528029E-01  0.528069E-01  0.527591E-01
     674.500  0.769972012503E+20  0.528208E-01  0.528021E-01  0.528076E-01  0.527582E-01
     679.500  0.769972012503E+20  0.528208E-01  0.528013E-01  0.528082E-01  0.527572E-01
     684.500  0.769972012503E+20  0.528208E-01  0.528005E-01  0.528089E-01  0.527563E-01
     689.500  0.769972012503E+20  0.528208E-01  0.527996E-01  0.528096E-01  0.527553E-01
     694.500  0.769972012503E+20  0.528208E-01  0.527986E-01  0.528102E-01  0.527543E-01
     699.500  0.769972012503E+20  0.528208E-01  0.527978E-01  0.528109E-01  0.527534E-01
     704.500  0.769972012503E+20  0.528208E-01  0.527969E-01  0.528116E-01  0.527525E-01
     709.500  0.769972012503E+20  0.528208E-01  0.527961E-01  0.528123E-01  0.527515E-01
     714.500  0.769972012503E+20  0.528208E-01  0.527953E-01  0.528131E-01  0.527506E-01
     719.500  0.769972012503E+20  0.528208E-01  0.527944E-01  0.528139E-01  0.527497E-01
     724.500  0.769972012502E+20  0.528208E-01  0.527936E-01  0.528147E-01  0.527488E-01
     729.500  0.769972012502E+20  0.528208E-01  0.527929E-01  0.528155E-01  0.527479E-01
     734.500  0.769972012502E+20  0.528208E-01  0.527921E-01  0.528164E-01  0.527470E-01
     739.500  0.769972012502E+20  0.528208E-01  0.527915E-01  0.528173E-01  0.527461E-01
     744.500  0.769972012502E+20  0.528208E-01  0.527907E-01  0.528182E-01  0.527451E-01
     749.500  0.769972012501E+20  0.528208E-01  0.527898E-01  0.528191E-01  0.527440E-01
     754.500  0.769972012501E+20  0.528208E-01  0.527889E-01  0.528200E-01  0.527428E-01
     759.500  0.769972012501E+20  0.528208E-01  0.527880E-01  0.528210E-01  0.527416E-01
     764.500  0.769972012501E+20  0.528209E-01  0.527871E-01  0.528219E-01  0.527404E-01
     769.500  0.769972012501E+20  0.528209E-01  0.527861E-01  0.528229E-01  0.527392E-01
     774.500  0.769972012501E+20  0.528209E-01  0.527851E-01  0.528239E-01  0.527379E-01
     779.500  0.769972012501E+20  0.528209E-01  0.527841E-01  0.528249E-01  0.527367E-01
     784.500  0.769972012501E+20  0.528209E-01  0.527830E-01  0.528260E-01  0.527355E-01
     789.500  0.769972012501E+20  0.528209E-01  0.527820E-01  0.528272E-01  0.527343E-01
     794.500  0.769972012501E+20  0.528209E-01  0.527810E-01  0.528283E-01  0.527331E-01
     799.500  0.769972012501E+20  0.528209E-01  0.527800E-01  0.528295E-01  0.527319E-01
     804.500  0.769972012501E+20  0.528209E-01  0.527789E-01  0.528308E-01  0.527307E-01
     809.500  0.769972012501E+20  0.528209E-01  0.527778E-01  0.528321E-01  0.527295E-01
     814.500  0.769972012501E+20  0.528209E-01  0.527767E-01  0.528334E-01  0.527284E-01
     819.500  0.769972012501E+20  0.528209E-01  0.527756E-01  0.528348E-01  0.527272E-01
     824.500  0.769972012501E+20  0.528209E-01  0.527745E-01  0.528362E-01  0.527260E-01
     829.500  0.769972012501E+20  0.528209E-01  0.527734E-01  0.528376E-01  0.527248E-01
     834.500  0.769972012501E+20  0.528209E-01  0.527723E-01  0.528391E-01  0.527236E-01
     839.500  0.769972012501E+20  0.528209E-01  0.527711E-01  0.528405E-01  0.527224E-01
     844.500  0.769972012501E+20  0.528209E-01  0.527700E-01  0.528420E-01  0.527212E-01
     849.500  0.769972012501E+20  0.528209E-01  0.527688E-01  0.528436E-01  0.527200E-01
     854.500  0.769972012501E+20  0.528209E-01  0.527677E-01  0.528451E-01  0.527187E-01
     859.500  0.769972012501E+20  0.528209E-01  0.527664E-01  0.528466E-01  0.527175E-01
     864.500  0.769972012501E+20  0.528209E-01  0.527652E-01  0.528482E-01  0.527162E-01
     869.500  0.769972012501E+20  0.528209E-01  0.527639E-01  0.528497E-01  0.527149E-01
     874.500  0.769972012501E+20  0.528209E-01  0.527628E-01  0.528513E-01  0.527137E-01
     879.500  0.769972012500E+20  0.528209E-01  0.527615E-01  0.528528E-01  0.527124E-01
     884.500  0.769972012500E+20  0.528209E-01  0.527603E-01  0.528544E-01  0.527111E-01
     889.500  0.769972012500E+20  0.528209E-01  0.527590E-01  0.528559E-01  0.527098E-01
     894.500  0.769972012500E+20  0.528209E-01  0.527578E-01  0.528574E-01  0.527084E-01
     899.500  0.769972012500E+20  0.528209E-01  0.527564E-01  0.528589E-01  0.527070E-01
     904.500  0.769972012500E+20  0.528209E-01  0.527551E-01  0.528605E-01  0.527056E-01
     909.500  0.769972012500E+20  0.528209E-01  0.527539E-01  0.528619E-01  0.527043E-01
