 % time (yr) / global total SO4 (mol) / global mean SO4 (mol kg-1) / surface (ice-free) SO4 (mol kg-1) / benthic [> 2000 m] SO4 (mol kg-1) / surface SO4 (mol kg-1)
       0.500  0.218659200380E+20  0.150001E-01  0.150006E-01  0.150001E-01  0.150006E-01
       1.500  0.218659200274E+20  0.150001E-01  0.150014E-01  0.150001E-01  0.150014E-01
       2.500  0.218659202745E+20  0.150001E-01  0.150015E-01  0.150001E-01  0.150015E-01
       3.500  0.218659204687E+20  0.150001E-01  0.150008E-01  0.150001E-01  0.150008E-01
       4.500  0.218659206040E+20  0.150001E-01  0.149998E-01  0.150001E-01  0.149998E-01
       5.500  0.218659207018E+20  0.150001E-01  0.149984E-01  0.150001E-01  0.149984E-01
       6.500  0.218659207769E+20  0.150001E-01  0.149968E-01  0.150001E-01  0.149968E-01
       7.500  0.218659208407E+20  0.150001E-01  0.149955E-01  0.150001E-01  0.149955E-01
       8.500  0.218659208957E+20  0.150001E-01  0.149943E-01  0.150001E-01  0.149943E-01
       9.500  0.218659209427E+20  0.150001E-01  0.149933E-01  0.150001E-01  0.149933E-01
      10.500  0.218659209823E+20  0.150001E-01  0.149924E-01  0.150001E-01  0.149924E-01
      11.500  0.218659210161E+20  0.150001E-01  0.149916E-01  0.150001E-01  0.149916E-01
      12.500  0.218659210452E+20  0.150001E-01  0.149907E-01  0.150001E-01  0.149907E-01
      13.500  0.218659210705E+20  0.150001E-01  0.149897E-01  0.150001E-01  0.149898E-01
      14.500  0.218659210931E+20  0.150001E-01  0.149888E-01  0.150001E-01  0.149889E-01
      15.500  0.218659211129E+20  0.150001E-01  0.149880E-01  0.150002E-01  0.149880E-01
      16.500  0.218659211308E+20  0.150001E-01  0.149872E-01  0.150002E-01  0.149873E-01
      17.500  0.218659211461E+20  0.150002E-01  0.149866E-01  0.150002E-01  0.149866E-01
      18.500  0.218659211597E+20  0.150002E-01  0.149861E-01  0.150002E-01  0.149861E-01
      19.500  0.218659211719E+20  0.150002E-01  0.149856E-01  0.150002E-01  0.149856E-01
      21.500  0.218659211911E+20  0.150002E-01  0.149849E-01  0.150002E-01  0.149850E-01
      23.500  0.218659212040E+20  0.150002E-01  0.149846E-01  0.150002E-01  0.149846E-01
      25.500  0.218659212130E+20  0.150002E-01  0.149844E-01  0.150003E-01  0.149842E-01
      27.500  0.218659212184E+20  0.150002E-01  0.149844E-01  0.150003E-01  0.149841E-01
      29.500  0.218659212230E+20  0.150002E-01  0.149844E-01  0.150003E-01  0.149840E-01
      31.500  0.218659212244E+20  0.150002E-01  0.149847E-01  0.150003E-01  0.149841E-01
      33.500  0.218659212248E+20  0.150002E-01  0.149849E-01  0.150003E-01  0.149841E-01
      35.500  0.218659212252E+20  0.150002E-01  0.149852E-01  0.150002E-01  0.149841E-01
      37.500  0.218659212246E+20  0.150002E-01  0.149855E-01  0.150002E-01  0.149842E-01
      39.500  0.218659212225E+20  0.150002E-01  0.149858E-01  0.150002E-01  0.149843E-01
      41.500  0.218659212193E+20  0.150002E-01  0.149863E-01  0.150001E-01  0.149845E-01
      43.500  0.218659212154E+20  0.150002E-01  0.149868E-01  0.150001E-01  0.149848E-01
      45.500  0.218659212108E+20  0.150002E-01  0.149873E-01  0.150001E-01  0.149852E-01
      47.500  0.218659212057E+20  0.150002E-01  0.149879E-01  0.150000E-01  0.149855E-01
      49.500  0.218659212006E+20  0.150002E-01  0.149884E-01  0.150000E-01  0.149859E-01
      51.500  0.218659211920E+20  0.150002E-01  0.149889E-01  0.149999E-01  0.149862E-01
      53.500  0.218659211477E+20  0.150002E-01  0.149893E-01  0.149999E-01  0.149864E-01
      55.500  0.218659209822E+20  0.150002E-01  0.149896E-01  0.149998E-01  0.149865E-01
      57.500  0.218659206637E+20  0.150002E-01  0.149898E-01  0.149998E-01  0.149866E-01
      59.500  0.218659202814E+20  0.150002E-01  0.149900E-01  0.149998E-01  0.149866E-01
      61.500  0.218659197645E+20  0.150002E-01  0.149901E-01  0.149998E-01  0.149866E-01
      63.500  0.218659191163E+20  0.150002E-01  0.149903E-01  0.149998E-01  0.149866E-01
      65.500  0.218659183339E+20  0.150002E-01  0.149905E-01  0.149998E-01  0.149867E-01
      67.500  0.218659173798E+20  0.150002E-01  0.149907E-01  0.149998E-01  0.149868E-01
      69.500  0.218659162923E+20  0.150002E-01  0.149910E-01  0.149998E-01  0.149869E-01
      71.500  0.218659150342E+20  0.150002E-01  0.149913E-01  0.149998E-01  0.149870E-01
      73.500  0.218659136414E+20  0.150002E-01  0.149916E-01  0.149998E-01  0.149872E-01
      75.500  0.218659122078E+20  0.150002E-01  0.149920E-01  0.149998E-01  0.149875E-01
      77.500  0.218659107503E+20  0.150002E-01  0.149924E-01  0.149997E-01  0.149877E-01
      79.500  0.218659092593E+20  0.150002E-01  0.149928E-01  0.149997E-01  0.149880E-01
      81.500  0.218659077266E+20  0.150002E-01  0.149932E-01  0.149996E-01  0.149883E-01
      83.500  0.218659061708E+20  0.150002E-01  0.149937E-01  0.149996E-01  0.149887E-01
      85.500  0.218659045968E+20  0.150002E-01  0.149942E-01  0.149995E-01  0.149890E-01
      87.500  0.218659029696E+20  0.150002E-01  0.149947E-01  0.149994E-01  0.149894E-01
      89.500  0.218659012801E+20  0.150002E-01  0.149951E-01  0.149993E-01  0.149897E-01
      91.500  0.218658994943E+20  0.150002E-01  0.149956E-01  0.149992E-01  0.149900E-01
      93.500  0.218658976061E+20  0.150002E-01  0.149961E-01  0.149991E-01  0.149904E-01
      95.500  0.218658955624E+20  0.150002E-01  0.149965E-01  0.149990E-01  0.149907E-01
      97.500  0.218658933737E+20  0.150002E-01  0.149970E-01  0.149988E-01  0.149911E-01
      99.500  0.218658910513E+20  0.150002E-01  0.149974E-01  0.149987E-01  0.149914E-01
     104.500  0.218658848988E+20  0.150002E-01  0.149985E-01  0.149984E-01  0.149922E-01
     109.500  0.218658783001E+20  0.150002E-01  0.149995E-01  0.149981E-01  0.149930E-01
     114.500  0.218658711788E+20  0.150002E-01  0.150006E-01  0.149978E-01  0.149938E-01
     119.500  0.218658637807E+20  0.150002E-01  0.150016E-01  0.149975E-01  0.149946E-01
     124.500  0.218658563256E+20  0.150002E-01  0.150025E-01  0.149972E-01  0.149953E-01
     129.500  0.218658486682E+20  0.150002E-01  0.150033E-01  0.149969E-01  0.149960E-01
     134.500  0.218658408330E+20  0.150002E-01  0.150042E-01  0.149967E-01  0.149966E-01
     139.500  0.218658328637E+20  0.150001E-01  0.150051E-01  0.149965E-01  0.149973E-01
     144.500  0.218658248268E+20  0.150001E-01  0.150059E-01  0.149963E-01  0.149979E-01
     149.500  0.218658167341E+20  0.150001E-01  0.150067E-01  0.149961E-01  0.149986E-01
     154.500  0.218658086915E+20  0.150001E-01  0.150074E-01  0.149960E-01  0.149991E-01
     159.500  0.218658008613E+20  0.150001E-01  0.150081E-01  0.149958E-01  0.149996E-01
     164.500  0.218657932389E+20  0.150001E-01  0.150087E-01  0.149957E-01  0.150001E-01
     169.500  0.218657857259E+20  0.150001E-01  0.150092E-01  0.149956E-01  0.150004E-01
     174.500  0.218657782420E+20  0.150001E-01  0.150096E-01  0.149956E-01  0.150007E-01
     179.500  0.218657706306E+20  0.150001E-01  0.150101E-01  0.149955E-01  0.150011E-01
     184.500  0.218657628939E+20  0.150001E-01  0.150105E-01  0.149955E-01  0.150013E-01
     189.500  0.218657551912E+20  0.150001E-01  0.150108E-01  0.149955E-01  0.150015E-01
     194.500  0.218657476079E+20  0.150001E-01  0.150111E-01  0.149955E-01  0.150017E-01
     199.500  0.218657401453E+20  0.150001E-01  0.150114E-01  0.149954E-01  0.150019E-01
     204.500  0.218657328080E+20  0.150001E-01  0.150117E-01  0.149954E-01  0.150020E-01
     209.500  0.218657255988E+20  0.150001E-01  0.150119E-01  0.149954E-01  0.150022E-01
     214.500  0.218657185255E+20  0.150001E-01  0.150122E-01  0.149954E-01  0.150023E-01
     219.500  0.218657115628E+20  0.150001E-01  0.150123E-01  0.149954E-01  0.150023E-01
     224.500  0.218657046508E+20  0.150001E-01  0.150125E-01  0.149954E-01  0.150024E-01
     229.500  0.218656977918E+20  0.150001E-01  0.150126E-01  0.149954E-01  0.150025E-01
     234.500  0.218656909956E+20  0.150000E-01  0.150128E-01  0.149954E-01  0.150025E-01
     239.500  0.218656843012E+20  0.150000E-01  0.150129E-01  0.149954E-01  0.150025E-01
     244.500  0.218656777344E+20  0.150000E-01  0.150130E-01  0.149953E-01  0.150025E-01
     249.500  0.218656713398E+20  0.150000E-01  0.150130E-01  0.149953E-01  0.150025E-01
     254.500  0.218656651351E+20  0.150000E-01  0.150130E-01  0.149952E-01  0.150025E-01
     259.500  0.218656591076E+20  0.150000E-01  0.150131E-01  0.149952E-01  0.150024E-01
     264.500  0.218656532562E+20  0.150000E-01  0.150131E-01  0.149951E-01  0.150024E-01
     269.500  0.218656475643E+20  0.150000E-01  0.150130E-01  0.149950E-01  0.150023E-01
     274.500  0.218656420193E+20  0.150000E-01  0.150130E-01  0.149949E-01  0.150022E-01
     279.500  0.218656366207E+20  0.150000E-01  0.150129E-01  0.149948E-01  0.150021E-01
     284.500  0.218656313763E+20  0.150000E-01  0.150129E-01  0.149947E-01  0.150020E-01
     289.500  0.218656262858E+20  0.150000E-01  0.150128E-01  0.149946E-01  0.150018E-01
     294.500  0.218656213591E+20  0.150000E-01  0.150127E-01  0.149945E-01  0.150017E-01
     299.500  0.218656166064E+20  0.150000E-01  0.150126E-01  0.149944E-01  0.150015E-01
     304.500  0.218656120318E+20  0.150000E-01  0.150124E-01  0.149943E-01  0.150014E-01
     309.500  0.218656076331E+20  0.150000E-01  0.150123E-01  0.149942E-01  0.150012E-01
     314.500  0.218656034049E+20  0.150000E-01  0.150121E-01  0.149941E-01  0.150010E-01
     319.500  0.218655993414E+20  0.150000E-01  0.150120E-01  0.149939E-01  0.150008E-01
     324.500  0.218655954399E+20  0.150000E-01  0.150118E-01  0.149938E-01  0.150006E-01
     329.500  0.218655916983E+20  0.150000E-01  0.150116E-01  0.149937E-01  0.150004E-01
     334.500  0.218655881109E+20  0.150000E-01  0.150115E-01  0.149936E-01  0.150001E-01
     339.500  0.218655846633E+20  0.150000E-01  0.150112E-01  0.149935E-01  0.149999E-01
     344.500  0.218655813521E+20  0.150000E-01  0.150110E-01  0.149934E-01  0.149997E-01
     349.500  0.218655781829E+20  0.150000E-01  0.150108E-01  0.149932E-01  0.149994E-01
     354.500  0.218655751542E+20  0.150000E-01  0.150106E-01  0.149931E-01  0.149992E-01
     359.500  0.218655722598E+20  0.150000E-01  0.150104E-01  0.149930E-01  0.149989E-01
     364.500  0.218655694944E+20  0.150000E-01  0.150101E-01  0.149929E-01  0.149987E-01
     369.500  0.218655668533E+20  0.150000E-01  0.150099E-01  0.149928E-01  0.149984E-01
     374.500  0.218655643314E+20  0.150000E-01  0.150097E-01  0.149927E-01  0.149982E-01
     379.500  0.218655619260E+20  0.150000E-01  0.150095E-01  0.149926E-01  0.149979E-01
     384.500  0.218655596347E+20  0.150000E-01  0.150092E-01  0.149925E-01  0.149976E-01
     389.500  0.218655574558E+20  0.150000E-01  0.150090E-01  0.149924E-01  0.149974E-01
     394.500  0.218655553855E+20  0.150000E-01  0.150087E-01  0.149923E-01  0.149971E-01
     399.500  0.218655534216E+20  0.150000E-01  0.150085E-01  0.149923E-01  0.149968E-01
     404.500  0.218655515601E+20  0.150000E-01  0.150082E-01  0.149922E-01  0.149966E-01
     409.500  0.218655497982E+20  0.150000E-01  0.150080E-01  0.149921E-01  0.149963E-01
     414.500  0.218655481298E+20  0.150000E-01  0.150078E-01  0.149921E-01  0.149960E-01
     419.500  0.218655465519E+20  0.150000E-01  0.150075E-01  0.149920E-01  0.149957E-01
     424.500  0.218655450567E+20  0.150000E-01  0.150073E-01  0.149919E-01  0.149953E-01
     429.500  0.218655436440E+20  0.150000E-01  0.150070E-01  0.149919E-01  0.149950E-01
     434.500  0.218655423156E+20  0.150000E-01  0.150067E-01  0.149918E-01  0.149947E-01
     439.500  0.218655410679E+20  0.150000E-01  0.150065E-01  0.149918E-01  0.149944E-01
     444.500  0.218655398915E+20  0.150000E-01  0.150062E-01  0.149917E-01  0.149941E-01
     449.500  0.218655387826E+20  0.150000E-01  0.150059E-01  0.149917E-01  0.149938E-01
     454.500  0.218655377381E+20  0.150000E-01  0.150057E-01  0.149917E-01  0.149936E-01
     459.500  0.218655367535E+20  0.150000E-01  0.150055E-01  0.149917E-01  0.149933E-01
     464.500  0.218655358292E+20  0.150000E-01  0.150052E-01  0.149917E-01  0.149931E-01
     469.500  0.218655349661E+20  0.149999E-01  0.150049E-01  0.149917E-01  0.149928E-01
     474.500  0.218655341622E+20  0.149999E-01  0.150047E-01  0.149917E-01  0.149925E-01
     479.500  0.218655334139E+20  0.149999E-01  0.150044E-01  0.149917E-01  0.149923E-01
     484.500  0.218655327209E+20  0.149999E-01  0.150041E-01  0.149917E-01  0.149920E-01
     489.500  0.218655320788E+20  0.149999E-01  0.150039E-01  0.149917E-01  0.149918E-01
     494.500  0.218655314820E+20  0.149999E-01  0.150036E-01  0.149918E-01  0.149915E-01
     499.500  0.218655309282E+20  0.149999E-01  0.150034E-01  0.149918E-01  0.149912E-01
     504.500  0.218655304119E+20  0.149999E-01  0.150031E-01  0.149919E-01  0.149910E-01
     509.500  0.218655299325E+20  0.149999E-01  0.150029E-01  0.149919E-01  0.149907E-01
     514.500  0.218655294922E+20  0.149999E-01  0.150026E-01  0.149920E-01  0.149905E-01
     519.500  0.218655290897E+20  0.149999E-01  0.150024E-01  0.149921E-01  0.149902E-01
     524.500  0.218655287264E+20  0.149999E-01  0.150021E-01  0.149921E-01  0.149900E-01
     529.500  0.218655283995E+20  0.149999E-01  0.150019E-01  0.149922E-01  0.149897E-01
     534.500  0.218655281089E+20  0.149999E-01  0.150016E-01  0.149923E-01  0.149895E-01
     539.500  0.218655278504E+20  0.149999E-01  0.150014E-01  0.149924E-01  0.149892E-01
     544.500  0.218655276225E+20  0.149999E-01  0.150011E-01  0.149925E-01  0.149890E-01
     549.500  0.218655274244E+20  0.149999E-01  0.150009E-01  0.149926E-01  0.149887E-01
     554.500  0.218655272575E+20  0.149999E-01  0.150007E-01  0.149927E-01  0.149885E-01
     559.500  0.218655271244E+20  0.149999E-01  0.150004E-01  0.149928E-01  0.149882E-01
     564.500  0.218655270208E+20  0.149999E-01  0.150002E-01  0.149929E-01  0.149880E-01
     569.500  0.218655269435E+20  0.149999E-01  0.150000E-01  0.149931E-01  0.149878E-01
     574.500  0.218655268888E+20  0.149999E-01  0.149997E-01  0.149932E-01  0.149875E-01
     579.500  0.218655268543E+20  0.149999E-01  0.149995E-01  0.149933E-01  0.149873E-01
     584.500  0.218655268404E+20  0.149999E-01  0.149992E-01  0.149934E-01  0.149870E-01
     589.500  0.218655268460E+20  0.149999E-01  0.149990E-01  0.149936E-01  0.149868E-01
     594.500  0.218655268703E+20  0.149999E-01  0.149987E-01  0.149937E-01  0.149865E-01
     599.500  0.218655269107E+20  0.149999E-01  0.149985E-01  0.149939E-01  0.149863E-01
     604.500  0.218655269695E+20  0.149999E-01  0.149982E-01  0.149940E-01  0.149860E-01
     609.500  0.218655270426E+20  0.149999E-01  0.149980E-01  0.149942E-01  0.149858E-01
     614.500  0.218655271328E+20  0.149999E-01  0.149978E-01  0.149944E-01  0.149855E-01
     619.500  0.218655272379E+20  0.149999E-01  0.149975E-01  0.149945E-01  0.149853E-01
     624.500  0.218655273572E+20  0.149999E-01  0.149973E-01  0.149947E-01  0.149851E-01
     629.500  0.218655274898E+20  0.149999E-01  0.149971E-01  0.149949E-01  0.149848E-01
     634.500  0.218655276349E+20  0.149999E-01  0.149969E-01  0.149950E-01  0.149846E-01
     639.500  0.218655277932E+20  0.149999E-01  0.149966E-01  0.149952E-01  0.149844E-01
     644.500  0.218655279619E+20  0.149999E-01  0.149964E-01  0.149954E-01  0.149841E-01
     649.500  0.218655281440E+20  0.149999E-01  0.149962E-01  0.149955E-01  0.149839E-01
     654.500  0.218655283353E+20  0.150000E-01  0.149960E-01  0.149957E-01  0.149836E-01
     659.500  0.218655285380E+20  0.150000E-01  0.149957E-01  0.149959E-01  0.149834E-01
     664.500  0.218655287530E+20  0.150000E-01  0.149955E-01  0.149961E-01  0.149831E-01
     669.500  0.218655289748E+20  0.150000E-01  0.149953E-01  0.149963E-01  0.149828E-01
     674.500  0.218655292068E+20  0.150000E-01  0.149950E-01  0.149964E-01  0.149826E-01
     679.500  0.218655294506E+20  0.150000E-01  0.149948E-01  0.149966E-01  0.149823E-01
     684.500  0.218655297059E+20  0.150000E-01  0.149946E-01  0.149968E-01  0.149820E-01
     689.500  0.218655299737E+20  0.150000E-01  0.149943E-01  0.149970E-01  0.149817E-01
     694.500  0.218655302513E+20  0.150000E-01  0.149941E-01  0.149972E-01  0.149815E-01
     699.500  0.218655305410E+20  0.150000E-01  0.149938E-01  0.149974E-01  0.149812E-01
     704.500  0.218655308462E+20  0.150000E-01  0.149936E-01  0.149976E-01  0.149809E-01
     709.500  0.218655311663E+20  0.150000E-01  0.149933E-01  0.149978E-01  0.149807E-01
     714.500  0.218655314984E+20  0.150000E-01  0.149931E-01  0.149980E-01  0.149804E-01
     719.500  0.218655318416E+20  0.150000E-01  0.149928E-01  0.149982E-01  0.149802E-01
     724.500  0.218655321971E+20  0.150000E-01  0.149926E-01  0.149985E-01  0.149799E-01
     729.500  0.218655325655E+20  0.150000E-01  0.149924E-01  0.149987E-01  0.149797E-01
     734.500  0.218655329422E+20  0.150000E-01  0.149922E-01  0.149989E-01  0.149794E-01
     739.500  0.218655333200E+20  0.150000E-01  0.149920E-01  0.149992E-01  0.149791E-01
     744.500  0.218655336964E+20  0.150000E-01  0.149918E-01  0.149994E-01  0.149789E-01
     749.500  0.218655340701E+20  0.150000E-01  0.149916E-01  0.149997E-01  0.149785E-01
     754.500  0.218655344473E+20  0.150000E-01  0.149913E-01  0.150000E-01  0.149782E-01
     759.500  0.218655348303E+20  0.150000E-01  0.149910E-01  0.150002E-01  0.149779E-01
     764.500  0.218655352175E+20  0.150000E-01  0.149908E-01  0.150005E-01  0.149775E-01
     769.500  0.218655356155E+20  0.150000E-01  0.149905E-01  0.150008E-01  0.149772E-01
     774.500  0.218655360302E+20  0.150000E-01  0.149902E-01  0.150011E-01  0.149768E-01
     779.500  0.218655364665E+20  0.150000E-01  0.149899E-01  0.150014E-01  0.149765E-01
     784.500  0.218655369244E+20  0.150000E-01  0.149896E-01  0.150017E-01  0.149761E-01
     789.500  0.218655374075E+20  0.150000E-01  0.149893E-01  0.150020E-01  0.149758E-01
     794.500  0.218655379114E+20  0.150000E-01  0.149891E-01  0.150023E-01  0.149754E-01
     799.500  0.218655384332E+20  0.150000E-01  0.149888E-01  0.150027E-01  0.149751E-01
     804.500  0.218655389721E+20  0.150000E-01  0.149885E-01  0.150030E-01  0.149748E-01
     809.500  0.218655395245E+20  0.150000E-01  0.149881E-01  0.150034E-01  0.149744E-01
     814.500  0.218655400895E+20  0.150000E-01  0.149878E-01  0.150038E-01  0.149741E-01
     819.500  0.218655406634E+20  0.150000E-01  0.149875E-01  0.150042E-01  0.149738E-01
     824.500  0.218655412477E+20  0.150000E-01  0.149872E-01  0.150046E-01  0.149734E-01
     829.500  0.218655418414E+20  0.150000E-01  0.149869E-01  0.150050E-01  0.149731E-01
     834.500  0.218655424416E+20  0.150000E-01  0.149866E-01  0.150054E-01  0.149727E-01
     839.500  0.218655430440E+20  0.150000E-01  0.149862E-01  0.150058E-01  0.149724E-01
     844.500  0.218655436493E+20  0.150000E-01  0.149859E-01  0.150062E-01  0.149721E-01
     849.500  0.218655442570E+20  0.150000E-01  0.149856E-01  0.150067E-01  0.149717E-01
     854.500  0.218655448653E+20  0.150000E-01  0.149853E-01  0.150071E-01  0.149714E-01
     859.500  0.218655454717E+20  0.150000E-01  0.149849E-01  0.150075E-01  0.149710E-01
     864.500  0.218655460734E+20  0.150000E-01  0.149846E-01  0.150080E-01  0.149707E-01
     869.500  0.218655466716E+20  0.150000E-01  0.149842E-01  0.150084E-01  0.149703E-01
     874.500  0.218655472667E+20  0.150000E-01  0.149839E-01  0.150088E-01  0.149699E-01
     879.500  0.218655478591E+20  0.150000E-01  0.149835E-01  0.150093E-01  0.149696E-01
     884.500  0.218655484477E+20  0.150000E-01  0.149832E-01  0.150097E-01  0.149692E-01
     889.500  0.218655490301E+20  0.150000E-01  0.149828E-01  0.150102E-01  0.149688E-01
     894.500  0.218655496056E+20  0.150000E-01  0.149825E-01  0.150106E-01  0.149684E-01
     899.500  0.218655501706E+20  0.150000E-01  0.149821E-01  0.150110E-01  0.149680E-01
     904.500  0.218655507218E+20  0.150000E-01  0.149817E-01  0.150115E-01  0.149676E-01
     909.500  0.218655512616E+20  0.150000E-01  0.149814E-01  0.150119E-01  0.149673E-01
