 % time (yr) / salinity (o/oo) / _surS (ice-free) (o/oo) / _benS (o/oo) [> 2000 m]  / _surS (o/oo)
       0.500   33.900177   33.903194   33.900080   33.903194
       1.500   33.900214   33.898263   33.900109   33.898263
       2.500   33.900237   33.894264   33.900072   33.894264
       3.500   33.900253   33.890831   33.900003   33.890831
       4.500   33.900264   33.888016   33.899921   33.888016
       5.500   33.900273   33.885970   33.899831   33.885970
       6.500   33.900281   33.884620   33.899733   33.884620
       7.500   33.900288   33.883772   33.899613   33.883772
       8.500   33.900294   33.882980   33.899502   33.882980
       9.500   33.900299   33.882150   33.899391   33.882148
      10.500   33.900303   33.881231   33.899271   33.881219
      11.500   33.900308   33.880237   33.899145   33.880217
      12.500   33.900312   33.879311   33.899016   33.879283
      13.500   33.900316   33.878502   33.898890   33.878443
      14.500   33.900321   33.877815   33.898763   33.877719
      15.500   33.900327   33.877297   33.898644   33.877136
      16.500   33.900334   33.876925   33.898519   33.876694
      17.500   33.900342   33.876732   33.898398   33.876382
      18.500   33.900350   33.876642   33.898274   33.876156
      19.500   33.900359   33.876653   33.898152   33.875992
      21.500   33.900378   33.876869   33.897913   33.875692
      23.500   33.900397   33.877367   33.897663   33.875531
      25.500   33.900417   33.878150   33.897406   33.875535
      27.500   33.900434   33.879551   33.897134   33.876086
      29.500   33.900448   33.881102   33.896869   33.876605
      31.500   33.900454   33.882982   33.896594   33.877427
      33.500   33.900456   33.884658   33.896328   33.878126
      35.500   33.900457   33.886287   33.896088   33.878886
      37.500   33.900458   33.887808   33.895850   33.879616
      39.500   33.900458   33.889211   33.895617   33.880291
      41.500   33.900459   33.890619   33.895379   33.881049
      43.500   33.900459   33.891995   33.895128   33.881828
      45.500   33.900459   33.893178   33.894876   33.882470
      47.500   33.900459   33.894308   33.894638   33.883033
      49.500   33.900460   33.895307   33.894397   33.883489
      51.500   33.900461   33.896176   33.894149   33.883839
      53.500   33.900462   33.896855   33.893903   33.884055
      55.500   33.900463   33.897546   33.893662   33.884315
      57.500   33.900464   33.898287   33.893402   33.884586
      59.500   33.900464   33.899019   33.893126   33.884870
      61.500   33.900465   33.899802   33.892841   33.885230
      63.500   33.900466   33.900624   33.892540   33.885694
      65.500   33.900466   33.901501   33.892227   33.886212
      67.500   33.900467   33.902398   33.891901   33.886773
      69.500   33.900467   33.903302   33.891565   33.887366
      71.500   33.900467   33.904288   33.891226   33.887986
      73.500   33.900468   33.905258   33.890886   33.888631
      75.500   33.900468   33.906193   33.890553   33.889237
      77.500   33.900468   33.907103   33.890230   33.889822
      79.500   33.900468   33.907985   33.889913   33.890391
      81.500   33.900469   33.908848   33.889602   33.890947
      83.500   33.900469   33.909670   33.889294   33.891478
      85.500   33.900469   33.910404   33.889009   33.891941
      87.500   33.900469   33.911087   33.888738   33.892352
      89.500   33.900469   33.911726   33.888486   33.892716
      91.500   33.900469   33.912280   33.888255   33.893016
      93.500   33.900469   33.912819   33.888034   33.893310
      95.500   33.900469   33.913283   33.887827   33.893538
      97.500   33.900469   33.913670   33.887632   33.893731
      99.500   33.900470   33.914041   33.887471   33.893878
     104.500   33.900470   33.914853   33.887053   33.894174
     109.500   33.900470   33.915505   33.886710   33.894365
     114.500   33.900470   33.915969   33.886457   33.894406
     119.500   33.900470   33.916241   33.886281   33.894270
     124.500   33.900470   33.916285   33.886175   33.893962
     129.500   33.900469   33.916053   33.886138   33.893494
     134.500   33.900469   33.915721   33.886150   33.892875
     139.500   33.900469   33.915321   33.886190   33.892193
     144.500   33.900469   33.914735   33.886298   33.891381
     149.500   33.900469   33.914107   33.886418   33.890540
     154.500   33.900469   33.913377   33.886541   33.889603
     159.500   33.900468   33.912513   33.886710   33.888552
     164.500   33.900468   33.911558   33.886903   33.887426
     169.500   33.900468   33.910569   33.887095   33.886282
     174.500   33.900468   33.909595   33.887304   33.885168
     179.500   33.900468   33.908621   33.887510   33.884071
     184.500   33.900467   33.907628   33.887716   33.882969
     189.500   33.900467   33.906627   33.887910   33.881908
     194.500   33.900467   33.905674   33.888093   33.880868
     199.500   33.900467   33.904711   33.888265   33.879828
     204.500   33.900467   33.903733   33.888435   33.878782
     209.500   33.900467   33.902758   33.888597   33.877744
     214.500   33.900467   33.901776   33.888747   33.876709
     219.500   33.900467   33.900785   33.888892   33.875674
     224.500   33.900466   33.899783   33.889026   33.874631
     229.500   33.900466   33.898784   33.889148   33.873597
     234.500   33.900466   33.897787   33.889286   33.872571
     239.500   33.900466   33.896784   33.889433   33.871539
     244.500   33.900466   33.895778   33.889586   33.870492
     249.500   33.900466   33.894781   33.889755   33.869474
     254.500   33.900466   33.893788   33.889929   33.868462
     259.500   33.900466   33.892813   33.890111   33.867473
     264.500   33.900466   33.891844   33.890302   33.866495
     269.500   33.900466   33.890873   33.890511   33.865499
     274.500   33.900466   33.889885   33.890725   33.864527
     279.500   33.900466   33.888932   33.890948   33.863561
     284.500   33.900466   33.887943   33.891176   33.862599
     289.500   33.900467   33.886988   33.891406   33.861637
     294.500   33.900467   33.886024   33.891649   33.860681
     299.500   33.900467   33.885079   33.891915   33.859734
     304.500   33.900467   33.884125   33.892185   33.858792
     309.500   33.900467   33.883177   33.892476   33.857856
     314.500   33.900467   33.882254   33.892782   33.856936
     319.500   33.900468   33.881375   33.893090   33.856022
     324.500   33.900468   33.880474   33.893406   33.855117
     329.500   33.900468   33.879574   33.893715   33.854222
     334.500   33.900468   33.878673   33.894040   33.853329
     339.500   33.900468   33.877779   33.894387   33.852456
     344.500   33.900468   33.876907   33.894744   33.851598
     349.500   33.900469   33.876025   33.895114   33.850736
     354.500   33.900469   33.875156   33.895491   33.849894
     359.500   33.900469   33.874300   33.895886   33.849058
     364.500   33.900470   33.873456   33.896280   33.848214
     369.500   33.900471   33.872624   33.896674   33.847356
     374.500   33.900471   33.871810   33.897070   33.846543
     379.500   33.900472   33.871008   33.897472   33.845740
     384.500   33.900472   33.870182   33.897882   33.844933
     389.500   33.900473   33.869400   33.898299   33.844149
     394.500   33.900473   33.868574   33.898723   33.843349
     399.500   33.900475   33.867783   33.899154   33.842532
     404.500   33.900478   33.867057   33.899587   33.841732
     409.500   33.900480   33.866276   33.900020   33.840875
     414.500   33.900484   33.865568   33.900461   33.839969
     419.500   33.900487   33.864859   33.900908   33.839039
     424.500   33.900488   33.864116   33.901359   33.838166
     429.500   33.900488   33.863349   33.901817   33.837342
     434.500   33.900488   33.862567   33.902285   33.836558
     439.500   33.900488   33.861807   33.902758   33.835816
     444.500   33.900487   33.861045   33.903238   33.835081
     449.500   33.900487   33.860313   33.903731   33.834380
     454.500   33.900487   33.859605   33.904229   33.833701
     459.500   33.900487   33.858900   33.904730   33.833021
     464.500   33.900487   33.858195   33.905238   33.832344
     469.500   33.900487   33.857487   33.905751   33.831667
     474.500   33.900487   33.856772   33.906262   33.830987
     479.500   33.900487   33.856073   33.906760   33.830315
     484.500   33.900487   33.855401   33.907262   33.829666
     489.500   33.900487   33.854739   33.907760   33.829025
     494.500   33.900487   33.854062   33.908257   33.828374
     499.500   33.900488   33.853414   33.908756   33.827739
     504.500   33.900488   33.852759   33.909248   33.827105
     509.500   33.900488   33.852109   33.909739   33.826473
     514.500   33.900488   33.851466   33.910232   33.825847
     519.500   33.900488   33.850830   33.910724   33.825225
     524.500   33.900488   33.850200   33.911218   33.824610
     529.500   33.900488   33.849574   33.911715   33.824002
     534.500   33.900488   33.848966   33.912214   33.823414
     539.500   33.900488   33.848360   33.912715   33.822830
     544.500   33.900488   33.847793   33.913219   33.822275
     549.500   33.900489   33.847223   33.913716   33.821708
     554.500   33.900489   33.846630   33.914218   33.821131
     559.500   33.900489   33.846054   33.914727   33.820571
     564.500   33.900489   33.845499   33.915248   33.820017
     569.500   33.900490   33.844949   33.915773   33.819483
     574.500   33.900490   33.844382   33.916299   33.818930
     579.500   33.900490   33.843823   33.916831   33.818376
     584.500   33.900491   33.843267   33.917367   33.817828
     589.500   33.900490   33.842703   33.917903   33.817266
     594.500   33.900491   33.842158   33.918440   33.816734
     599.500   33.900491   33.841621   33.918972   33.816206
     604.500   33.900491   33.841069   33.919496   33.815671
     609.500   33.900491   33.840528   33.920022   33.815143
     614.500   33.900492   33.840013   33.920548   33.814620
     619.500   33.900492   33.839482   33.921069   33.814102
     624.500   33.900493   33.839004   33.921589   33.813616
     629.500   33.900493   33.838476   33.922129   33.813092
     634.500   33.900493   33.837964   33.922685   33.812578
     639.500   33.900494   33.837395   33.923253   33.812015
     644.500   33.900495   33.836811   33.923829   33.811418
     649.500   33.900498   33.836330   33.924417   33.810867
     654.500   33.900499   33.835765   33.925023   33.810263
     659.500   33.900500   33.835190   33.925647   33.809626
     664.500   33.900504   33.834609   33.926286   33.808895
     669.500   33.900506   33.834021   33.926942   33.808191
     674.500   33.900508   33.833442   33.927616   33.807531
     679.500   33.900510   33.832863   33.928323   33.806837
     684.500   33.900513   33.832261   33.929035   33.806118
     689.500   33.900514   33.831642   33.929750   33.805422
     694.500   33.900515   33.831025   33.930489   33.804755
     699.500   33.900515   33.830464   33.931252   33.804136
     704.500   33.900516   33.829848   33.932026   33.803495
     709.500   33.900517   33.829283   33.932814   33.802886
     714.500   33.900517   33.828676   33.933622   33.802283
     719.500   33.900518   33.828052   33.934447   33.801665
     724.500   33.900519   33.827478   33.935277   33.801027
     729.500   33.900521   33.826926   33.936121   33.800392
     734.500   33.900523   33.826330   33.936979   33.799726
     739.500   33.900528   33.825698   33.937853   33.798865
     744.500   33.900533   33.824986   33.938743   33.797874
     749.500   33.900537   33.824220   33.939646   33.796859
     754.500   33.900541   33.823459   33.940561   33.795784
     759.500   33.900544   33.822691   33.941491   33.794777
     764.500   33.900546   33.821952   33.942437   33.793794
     769.500   33.900548   33.821130   33.943394   33.792813
     774.500   33.900549   33.820273   33.944363   33.791800
     779.500   33.900551   33.819384   33.945336   33.790802
     784.500   33.900552   33.818500   33.946306   33.789840
     789.500   33.900553   33.817667   33.947274   33.788927
     794.500   33.900554   33.816835   33.948240   33.788040
     799.500   33.900554   33.816028   33.949201   33.787184
     804.500   33.900555   33.815239   33.950157   33.786316
     809.500   33.900555   33.814384   33.951107   33.785455
     814.500   33.900556   33.813605   33.952048   33.784635
     819.500   33.900557   33.812814   33.952977   33.783814
     824.500   33.900557   33.812050   33.953900   33.783005
     829.500   33.900558   33.811314   33.954804   33.782224
     834.500   33.900560   33.810590   33.955704   33.781450
     839.500   33.900560   33.809901   33.956596   33.780731
     844.500   33.900561   33.809216   33.957461   33.780017
     849.500   33.900562   33.808534   33.958314   33.779306
     854.500   33.900563   33.807879   33.959141   33.778595
     859.500   33.900563   33.807213   33.959948   33.777883
     864.500   33.900564   33.806567   33.960738   33.777216
     869.500   33.900564   33.805924   33.961503   33.776564
     874.500   33.900565   33.805353   33.962245   33.775940
     879.500   33.900566   33.804752   33.962964   33.775320
     884.500   33.900566   33.804184   33.963661   33.774711
     889.500   33.900567   33.803629   33.964335   33.774091
     894.500   33.900569   33.803013   33.964986   33.773352
     899.500   33.900570   33.802425   33.965599   33.772718
     904.500   33.900570   33.801884   33.966210   33.772129
     909.500   33.900571   33.801371   33.966794   33.771598
     914.500   33.900571   33.800855   33.967355   33.771086
     919.500   33.900571   33.800341   33.967899   33.770577
     924.500   33.900571   33.799880   33.968425   33.770093
     929.500   33.900571   33.799414   33.968930   33.769628
     934.500   33.900572   33.798946   33.969422   33.769177
     939.500   33.900572   33.798517   33.969895   33.768736
     944.500   33.900572   33.798089   33.970345   33.768315
     949.500   33.900572   33.797679   33.970773   33.767910
     954.500   33.900572   33.797278   33.971186   33.767510
     959.500   33.900572   33.796873   33.971575   33.767106
     964.500   33.900572   33.796505   33.971946   33.766731
     969.500   33.900573   33.796127   33.972306   33.766362
     974.500   33.900573   33.795755   33.972651   33.765993
     979.500   33.900573   33.795419   33.972983   33.765655
     984.500   33.900573   33.795084   33.973303   33.765317
     989.500   33.900573   33.794775   33.973610   33.764998
     994.500   33.900573   33.794442   33.973903   33.764674
     999.500   33.900574   33.794131   33.974184   33.764365
    1019.500   33.900574   33.793015   33.975182   33.763240
    1039.500   33.900574   33.792025   33.976027   33.762253
    1059.500   33.900575   33.791166   33.976755   33.761378
    1079.500   33.900575   33.790426   33.977360   33.760629
    1099.500   33.900576   33.789792   33.977865   33.759994
    1119.500   33.900576   33.789237   33.978298   33.759457
    1139.500   33.900576   33.788784   33.978660   33.758996
    1159.500   33.900576   33.788333   33.978946   33.758574
    1179.500   33.900576   33.787967   33.979166   33.758207
    1199.500   33.900576   33.787635   33.979347   33.757878
    1219.500   33.900576   33.787364   33.979482   33.757602
    1239.500   33.900576   33.787143   33.979578   33.757392
    1259.500   33.900576   33.786961   33.979644   33.757214
    1279.500   33.900576   33.786808   33.979685   33.757059
    1299.500   33.900576   33.786661   33.979702   33.756917
    1319.500   33.900576   33.786545   33.979699   33.756811
    1339.500   33.900577   33.786467   33.979680   33.756738
    1359.500   33.900577   33.786413   33.979647   33.756688
    1379.500   33.900577   33.786374   33.979604   33.756654
    1399.500   33.900577   33.786324   33.979553   33.756611
    1419.500   33.900577   33.786272   33.979498   33.756566
    1439.500   33.900577   33.786242   33.979440   33.756543
    1459.500   33.900577   33.786227   33.979381   33.756534
    1479.500   33.900577   33.786213   33.979322   33.756525
    1499.500   33.900578   33.786223   33.979263   33.756521
    1519.500   33.900577   33.786180   33.979205   33.756500
    1539.500   33.900578   33.786146   33.979147   33.756468
    1559.500   33.900578   33.786155   33.979087   33.756459
    1579.500   33.900578   33.786159   33.979031   33.756467
    1599.500   33.900578   33.786160   33.978980   33.756475
    1619.500   33.900578   33.786141   33.978935   33.756466
    1639.500   33.900579   33.786099   33.978904   33.756400
    1659.500   33.900579   33.786052   33.978890   33.756375
    1679.500   33.900579   33.786034   33.978883   33.756345
    1699.500   33.900579   33.786038   33.978877   33.756326
    1719.500   33.900579   33.786022   33.978873   33.756292
    1739.500   33.900580   33.785977   33.978873   33.756255
    1759.500   33.900580   33.785913   33.978880   33.756194
    1779.500   33.900580   33.785877   33.978892   33.756145
    1799.500   33.900580   33.785843   33.978909   33.756124
    1819.500   33.900580   33.785790   33.978924   33.756075
    1839.500   33.900580   33.785769   33.978940   33.756059
    1859.500   33.900581   33.785699   33.978959   33.755992
    1879.500   33.900580   33.785627   33.978982   33.755929
    1899.500   33.900581   33.785596   33.979008   33.755885
    1919.500   33.900582   33.785567   33.979039   33.755829
    1939.500   33.900582   33.785539   33.979079   33.755801
    1959.500   33.900582   33.785473   33.979127   33.755740
    1979.500   33.900582   33.785419   33.979175   33.755685
    1999.500   33.900582   33.785347   33.979222   33.755616
    2049.500   33.900583   33.785245   33.979386   33.755470
    2099.500   33.900584   33.785103   33.979594   33.755327
    2149.500   33.900585   33.784991   33.979786   33.755189
    2199.500   33.900584   33.784821   33.979970   33.755028
    2249.500   33.900585   33.784703   33.980146   33.754875
    2299.500   33.900586   33.784642   33.980349   33.754798
    2349.500   33.900586   33.784503   33.980540   33.754657
    2399.500   33.900587   33.784431   33.980712   33.754587
    2449.500   33.900588   33.784299   33.980868   33.754437
    2499.500   33.900587   33.784194   33.980985   33.754365
    2549.500   33.900586   33.784106   33.981027   33.754301
    2599.500   33.900586   33.784030   33.981055   33.754226
    2649.500   33.900587   33.783981   33.981102   33.754167
    2699.500   33.900587   33.783900   33.981154   33.754088
    2749.500   33.900587   33.783885   33.981203   33.754078
    2799.500   33.900587   33.783786   33.981249   33.753992
    2849.500   33.900588   33.783790   33.981296   33.753986
    2899.500   33.900588   33.783737   33.981359   33.753934
    2949.500   33.900588   33.783730   33.981431   33.753918
    2999.500   33.900588   33.783666   33.981489   33.753864
    3049.500   33.900589   33.783670   33.981543   33.753851
    3099.500   33.900588   33.783640   33.981517   33.753829
    3149.500   33.900589   33.783619   33.981497   33.753801
    3199.500   33.900589   33.783623   33.981490   33.753808
    3249.500   33.900589   33.783556   33.981490   33.753763
    3299.500   33.900589   33.783594   33.981487   33.753813
    3349.500   33.900588   33.783566   33.981435   33.753807
    3399.500   33.900589   33.783585   33.981373   33.753830
    3449.500   33.900589   33.783578   33.981331   33.753821
    3499.500   33.900589   33.783568   33.981299   33.753818
    3549.500   33.900589   33.783604   33.981279   33.753846
    3599.500   33.900589   33.783585   33.981269   33.753829
    3649.500   33.900589   33.783600   33.981266   33.753844
    3699.500   33.900589   33.783564   33.981264   33.753828
    3749.500   33.900590   33.783596   33.981268   33.753852
    3799.500   33.900589   33.783571   33.981276   33.753833
