 % time (yr) / global pCO2 flux (mol yr-1)  NOTE: is the instantaneous (per unit time) atmospheric forcing flux.
       0.500 -0.6779770E+15
       1.500 -0.4276374E+15
       2.500 -0.3559745E+15
       3.500 -0.3101047E+15
       4.500 -0.2788727E+15
       5.500 -0.2565770E+15
       6.500 -0.2392236E+15
       7.500 -0.2239091E+15
       8.500 -0.2112308E+15
       9.500 -0.1994078E+15
      10.500 -0.1911873E+15
      11.500 -0.1853535E+15
      12.500 -0.1800306E+15
      13.500 -0.1748112E+15
      14.500 -0.1699918E+15
      15.500 -0.1651469E+15
      16.500 -0.1597203E+15
      17.500 -0.1550077E+15
      18.500 -0.1501895E+15
      19.500 -0.1455058E+15
      21.500 -0.1365014E+15
      23.500 -0.1305729E+15
      25.500 -0.1260245E+15
      27.500 -0.1219813E+15
      29.500 -0.1184347E+15
      31.500 -0.1164307E+15
      33.500 -0.1142763E+15
      35.500 -0.1123352E+15
      37.500 -0.1105272E+15
      39.500 -0.1091330E+15
      41.500 -0.1079556E+15
      43.500 -0.1068503E+15
      45.500 -0.1059773E+15
      47.500 -0.1052934E+15
      49.500 -0.1045912E+15
      51.500 -0.1040338E+15
      53.500 -0.1032476E+15
      55.500 -0.1032869E+15
      57.500 -0.1030019E+15
      59.500 -0.1025554E+15
      61.500 -0.1020605E+15
      63.500 -0.1017422E+15
      65.500 -0.1014879E+15
      67.500 -0.1009860E+15
      69.500 -0.1004203E+15
      71.500 -0.9984872E+14
      73.500 -0.9981215E+14
      75.500 -0.9981910E+14
      77.500 -0.9961572E+14
      79.500 -0.9900427E+14
      81.500 -0.9823746E+14
      83.500 -0.9742291E+14
      85.500 -0.9683522E+14
      87.500 -0.9655896E+14
      89.500 -0.9607848E+14
      91.500 -0.9548551E+14
      93.500 -0.9493145E+14
      95.500 -0.9477056E+14
      97.500 -0.9438899E+14
      99.500 -0.9398879E+14
     104.500 -0.9335606E+14
     109.500 -0.9201763E+14
     114.500 -0.9048246E+14
     119.500 -0.8910297E+14
     124.500 -0.8793637E+14
     129.500 -0.8681522E+14
     134.500 -0.8569103E+14
     139.500 -0.8455559E+14
     144.500 -0.8364551E+14
     149.500 -0.8272999E+14
     154.500 -0.8184641E+14
     159.500 -0.8103456E+14
     164.500 -0.8009621E+14
     169.500 -0.7913330E+14
     174.500 -0.7836051E+14
     179.500 -0.7745477E+14
     184.500 -0.7642040E+14
     189.500 -0.7551533E+14
     194.500 -0.7457931E+14
     199.500 -0.7378234E+14
     204.500 -0.7277255E+14
     209.500 -0.7184609E+14
     214.500 -0.7083562E+14
     219.500 -0.6978046E+14
     224.500 -0.6887964E+14
     229.500 -0.6796229E+14
     234.500 -0.6707792E+14
     239.500 -0.6613932E+14
     244.500 -0.6523093E+14
     249.500 -0.6439679E+14
     254.500 -0.6362174E+14
     259.500 -0.6263333E+14
     264.500 -0.6176590E+14
     269.500 -0.6068586E+14
     274.500 -0.5996622E+14
     279.500 -0.5909109E+14
     284.500 -0.5820319E+14
     289.500 -0.5743260E+14
     294.500 -0.5665674E+14
     299.500 -0.5588053E+14
     304.500 -0.5510304E+14
     309.500 -0.5439225E+14
     314.500 -0.5375802E+14
     319.500 -0.5301832E+14
     324.500 -0.5234492E+14
     329.500 -0.5163434E+14
     334.500 -0.5097909E+14
     339.500 -0.5021690E+14
     344.500 -0.4950795E+14
     349.500 -0.4885181E+14
     354.500 -0.4806497E+14
     359.500 -0.4740705E+14
     364.500 -0.4688693E+14
     369.500 -0.4629412E+14
     374.500 -0.4563895E+14
     379.500 -0.4493853E+14
     384.500 -0.4436267E+14
     389.500 -0.4378763E+14
     394.500 -0.4322164E+14
     399.500 -0.4279334E+14
     404.500 -0.4220590E+14
     409.500 -0.4163569E+14
     414.500 -0.4107847E+14
     419.500 -0.4046529E+14
     424.500 -0.3981211E+14
     429.500 -0.3924211E+14
     434.500 -0.3865857E+14
     439.500 -0.3812166E+14
     444.500 -0.3751942E+14
     449.500 -0.3705241E+14
     454.500 -0.3651183E+14
     459.500 -0.3599399E+14
     464.500 -0.3553599E+14
     469.500 -0.3514644E+14
     474.500 -0.3476367E+14
     479.500 -0.3421547E+14
     484.500 -0.3379753E+14
     489.500 -0.3337024E+14
     494.500 -0.3297981E+14
     499.500 -0.3242214E+14
     504.500 -0.3197256E+14
     509.500 -0.3154649E+14
     514.500 -0.3102794E+14
     519.500 -0.3058501E+14
     524.500 -0.3011575E+14
     529.500 -0.2965692E+14
     534.500 -0.2924894E+14
     539.500 -0.2908308E+14
     544.500 -0.2848802E+14
     549.500 -0.2786047E+14
     554.500 -0.2753518E+14
     559.500 -0.2721926E+14
     564.500 -0.2668085E+14
     569.500 -0.2631320E+14
     574.500 -0.2598151E+14
     579.500 -0.2560462E+14
     584.500 -0.2520708E+14
     589.500 -0.2498651E+14
     594.500 -0.2460442E+14
     599.500 -0.2417258E+14
     604.500 -0.2387463E+14
     609.500 -0.2354615E+14
     614.500 -0.2305528E+14
     619.500 -0.2280846E+14
     624.500 -0.2240446E+14
     629.500 -0.2200096E+14
     634.500 -0.2168572E+14
     639.500 -0.2142942E+14
     644.500 -0.2138248E+14
     649.500 -0.2073626E+14
     654.500 -0.2033151E+14
     659.500 -0.2012170E+14
     664.500 -0.1983770E+14
     669.500 -0.1923394E+14
     674.500 -0.1879064E+14
     679.500 -0.1848518E+14
     684.500 -0.1803799E+14
     689.500 -0.1777876E+14
     694.500 -0.1756914E+14
     699.500 -0.1731736E+14
     704.500 -0.1699782E+14
     709.500 -0.1654511E+14
     714.500 -0.1628008E+14
     719.500 -0.1611701E+14
     724.500 -0.1580383E+14
     729.500 -0.1560216E+14
     734.500 -0.1527802E+14
     739.500 -0.1496755E+14
     744.500 -0.1442094E+14
     749.500 -0.1400466E+14
     754.500 -0.1333862E+14
     759.500 -0.1277917E+14
     764.500 -0.1234667E+14
     769.500 -0.1205899E+14
     774.500 -0.1179952E+14
     779.500 -0.1143132E+14
     784.500 -0.1116975E+14
     789.500 -0.1097474E+14
     794.500 -0.1085998E+14
     799.500 -0.1074180E+14
     804.500 -0.1053595E+14
     809.500 -0.1048801E+14
     814.500 -0.1032556E+14
     819.500 -0.1001819E+14
     824.500 -0.9872632E+13
     829.500 -0.9792728E+13
     834.500 -0.9665797E+13
     839.500 -0.9642227E+13
     844.500 -0.9547577E+13
     849.500 -0.9456429E+13
     854.500 -0.9304709E+13
     859.500 -0.9188669E+13
     864.500 -0.9134763E+13
     869.500 -0.9035845E+13
     874.500 -0.8968750E+13
     879.500 -0.8903610E+13
     884.500 -0.8848947E+13
     889.500 -0.8613466E+13
     894.500 -0.8397160E+13
     899.500 -0.8379854E+13
     904.500 -0.8410065E+13
     909.500 -0.8422608E+13
     914.500 -0.8368561E+13
     919.500 -0.8356216E+13
     924.500 -0.8326910E+13
     929.500 -0.8284996E+13
     934.500 -0.8267328E+13
     939.500 -0.8189242E+13
     944.500 -0.8169040E+13
     949.500 -0.8120040E+13
     954.500 -0.8057044E+13
     959.500 -0.7992558E+13
     964.500 -0.7991527E+13
     969.500 -0.7968103E+13
     974.500 -0.7928089E+13
     979.500 -0.7890710E+13
     984.500 -0.7771318E+13
     989.500 -0.7758292E+13
     994.500 -0.7727159E+13
     999.500 -0.7693690E+13
    1019.500 -0.7536923E+13
    1039.500 -0.7452838E+13
    1059.500 -0.7297355E+13
    1079.500 -0.7213721E+13
    1099.500 -0.7034106E+13
    1119.500 -0.6899270E+13
    1139.500 -0.6762829E+13
    1159.500 -0.6668305E+13
    1179.500 -0.6634896E+13
    1199.500 -0.6499376E+13
    1219.500 -0.6420769E+13
    1239.500 -0.6311271E+13
    1259.500 -0.6247977E+13
    1279.500 -0.6096650E+13
    1299.500 -0.6084807E+13
    1319.500 -0.5981392E+13
    1339.500 -0.5888026E+13
    1359.500 -0.5832761E+13
    1379.500 -0.5771928E+13
    1399.500 -0.5720134E+13
    1419.500 -0.5637761E+13
    1439.500 -0.5568578E+13
    1459.500 -0.5458887E+13
    1479.500 -0.5432599E+13
    1499.500 -0.5367704E+13
    1519.500 -0.5410219E+13
    1539.500 -0.5271961E+13
    1559.500 -0.5164710E+13
    1579.500 -0.5099996E+13
    1599.500 -0.5037570E+13
    1619.500 -0.4979960E+13
    1639.500 -0.4965641E+13
    1659.500 -0.4796958E+13
    1679.500 -0.4725892E+13
    1699.500 -0.4675985E+13
    1719.500 -0.4618815E+13
    1739.500 -0.4593737E+13
    1759.500 -0.4501934E+13
    1779.500 -0.4423260E+13
    1799.500 -0.4376324E+13
    1819.500 -0.4324885E+13
    1839.500 -0.4245537E+13
    1859.500 -0.4226823E+13
    1879.500 -0.4112511E+13
    1899.500 -0.4074332E+13
    1919.500 -0.3967739E+13
    1939.500 -0.3916782E+13
    1959.500 -0.3883043E+13
    1979.500 -0.3879313E+13
    1999.500 -0.3744695E+13
    2049.500 -0.3632904E+13
    2099.500 -0.3501354E+13
    2149.500 -0.3388091E+13
    2199.500 -0.3303489E+13
    2249.500 -0.3125722E+13
    2299.500 -0.3094091E+13
    2349.500 -0.2970834E+13
    2399.500 -0.2864995E+13
    2449.500 -0.2773400E+13
    2499.500 -0.2714369E+13
    2549.500 -0.2713320E+13
    2599.500 -0.2618624E+13
    2649.500 -0.2573239E+13
    2699.500 -0.2455584E+13
    2749.500 -0.2403531E+13
    2799.500 -0.2350512E+13
    2849.500 -0.2220804E+13
    2899.500 -0.2171866E+13
    2949.500 -0.2065540E+13
    2999.500 -0.2074225E+13
    3049.500 -0.2004485E+13
    3099.500 -0.2002773E+13
    3149.500 -0.1936846E+13
    3199.500 -0.1855738E+13
    3249.500 -0.1801389E+13
    3299.500 -0.1711523E+13
    3349.500 -0.1740347E+13
    3399.500 -0.1634295E+13
    3449.500 -0.1632971E+13
    3499.500 -0.1510809E+13
    3549.500 -0.1505855E+13
    3599.500 -0.1436014E+13
    3649.500 -0.1361411E+13
    3699.500 -0.1340481E+13
    3749.500 -0.1253819E+13
    3799.500 -0.1236167E+13
    3849.500 -0.1138303E+13
    3899.500 -0.1166559E+13
    3949.500 -0.1054551E+13
    3999.500 -0.1045480E+13
    4049.500 -0.9999276E+12
    4099.500 -0.9296621E+12
    4149.500 -0.9395307E+12
    4199.500 -0.8672294E+12
    4249.500 -0.8816472E+12
    4299.500 -0.7924279E+12
    4349.500 -0.8117625E+12
    4399.500 -0.7293495E+12
    4449.500 -0.7264964E+12
    4499.500 -0.7124174E+12
    4549.500 -0.6451686E+12
    4599.500 -0.6682554E+12
    4649.500 -0.6029041E+12
    4699.500 -0.6590057E+12
    4749.500 -0.5216779E+12
    4799.500 -0.5597422E+12
    4849.500 -0.4886398E+12
    4899.500 -0.4862071E+12
    4949.500 -0.4456522E+12
    4999.500 -0.4238879E+12
    5049.500 -0.4436940E+12
    5099.500 -0.3996002E+12
    5149.500 -0.4439060E+12
    5199.500 -0.3522549E+12
    5249.500 -0.4025452E+12
    5299.500 -0.3473411E+12
    5349.500 -0.3362357E+12
    5399.500 -0.3498315E+12
    5449.500 -0.2978596E+12
    5499.500 -0.3088983E+12
    5549.500 -0.2827218E+12
    5599.500 -0.3071523E+12
    5649.500 -0.2495537E+12
    5699.500 -0.2586437E+12
    5749.500 -0.2303632E+12
    5799.500 -0.2225020E+12
    5849.500 -0.2411207E+12
    5899.500 -0.1858169E+12
    5949.500 -0.2311653E+12
    5999.500 -0.1927552E+12
    6049.500 -0.2163633E+12
    6099.500 -0.1690420E+12
    6149.500 -0.1727864E+12
    6199.500 -0.1305944E+12
    6249.500 -0.1509496E+12
    6299.500 -0.1815329E+12
    6349.500 -0.1245273E+12
    6399.500 -0.1922689E+12
    6449.500 -0.1113284E+12
    6499.500 -0.1515914E+12
    6549.500 -0.1458571E+12
    6599.500 -0.9967028E+11
    6649.500 -0.1215245E+12
    6699.500 -0.1066424E+12
    6749.500 -0.1083188E+12
    6799.500 -0.8150336E+11
    6849.500 -0.1412480E+12
    6899.500 -0.6353793E+11
    6949.500 -0.1076882E+12
    6999.500 -0.7864654E+11
    7049.500 -0.7030039E+11
    7099.500 -0.7546284E+11
    7149.500 -0.5380328E+11
    7199.500 -0.6731600E+11
    7249.500 -0.4950674E+11
    7299.500 -0.8941791E+11
    7349.500 -0.3627587E+11
    7399.500 -0.4225009E+11
    7449.500 -0.2637177E+11
    7499.500 -0.3611472E+11
    7549.500 -0.6331836E+11
    7599.500 -0.3766339E+11
    7649.500 -0.7094741E+11
    7699.500 -0.1533309E+11
    7749.500 -0.7320203E+11
    7799.500 -0.3299098E+11
    7849.500 -0.1008234E+11
    7899.500 -0.5831136E+11
    7949.500 -0.4171190E+11
    7999.500 -0.3402750E+11
    8049.500 -0.1612106E+11
    8099.500 -0.7325450E+11
    8149.500 -0.1533506E+11
    8199.500 -0.6092314E+11
    8249.500 -0.2609710E+11
    8299.500 -0.2194086E+11
    8349.500 -0.3412450E+11
    8399.500 -0.2640224E+10
    8449.500 -0.9113585E+10
    8499.500 -0.1919042E+11
    8549.500 -0.3886528E+11
    8599.500  0.3321208E+10
    8649.500 -0.2827951E+11
    8699.500  0.3338081E+10
    8749.500 -0.1155444E+11
    8799.500 -0.4806578E+11
    8849.500  0.1023531E+10
    8899.500 -0.5382706E+11
    8949.500  0.1437001E+10
    8999.500 -0.7392853E+11
    9049.500 -0.1903486E+11
    9099.500 -0.2218600E+11
    9149.500 -0.5152327E+11
    9199.500 -0.2453166E+11
    9249.500 -0.1868345E+11
    9299.500 -0.8843961E+10
    9349.500 -0.6483449E+11
    9399.500 -0.3729558E+10
    9449.500 -0.2370859E+11
    9499.500 -0.1783854E+11
    9549.500  0.1226933E+11
    9599.500 -0.2855910E+11
    9649.500 -0.4035866E+10
    9699.500 -0.1174962E+11
    9749.500 -0.3296165E+10
    9799.500 -0.2483953E+11
    9849.500  0.1621223E+11
    9899.500 -0.7867630E+10
    9949.500 -0.1506284E+10
    9999.500  0.1532119E+11
