 % time (yr) / global total H2S (mol) / global mean H2S (mol kg-1) / surface (ice-free) H2S (mol kg-1) / benthic [> 2000 m] H2S (mol kg-1) / surface H2S (mol kg-1)
       0.500  0.231616186531E+13  0.158889E-08  0.186979E-07  0.599916E-09  0.186979E-07
       1.500  0.232674414373E+13  0.159615E-08  0.237792E-07  0.540829E-09  0.237792E-07
       2.500  0.207961728206E+13  0.142663E-08  0.222874E-07  0.437376E-09  0.222874E-07
       3.500  0.188543594263E+13  0.129342E-08  0.207075E-07  0.364139E-09  0.207075E-07
       4.500  0.175015520185E+13  0.120061E-08  0.194456E-07  0.316068E-09  0.194456E-07
       5.500  0.165237258446E+13  0.113354E-08  0.184812E-07  0.279192E-09  0.184812E-07
       6.500  0.157730186380E+13  0.108204E-08  0.177117E-07  0.250407E-09  0.177117E-07
       7.500  0.151349994137E+13  0.103827E-08  0.170524E-07  0.227746E-09  0.170524E-07
       8.500  0.145847302275E+13  0.100052E-08  0.164762E-07  0.204771E-09  0.164762E-07
       9.500  0.141141775174E+13  0.968240E-09  0.159670E-07  0.184858E-09  0.159668E-07
      10.500  0.137181083270E+13  0.941069E-09  0.155241E-07  0.171617E-09  0.155229E-07
      11.500  0.133807479068E+13  0.917926E-09  0.151393E-07  0.160645E-09  0.151295E-07
      12.500  0.130896736902E+13  0.897959E-09  0.148114E-07  0.149745E-09  0.147903E-07
      13.500  0.128361450022E+13  0.880566E-09  0.145225E-07  0.141043E-09  0.144933E-07
      14.500  0.126102506663E+13  0.865070E-09  0.142682E-07  0.132229E-09  0.142260E-07
      15.500  0.124120668100E+13  0.851475E-09  0.140423E-07  0.123111E-09  0.139894E-07
      16.500  0.122337956623E+13  0.839245E-09  0.138445E-07  0.116036E-09  0.137840E-07
      17.500  0.120803949782E+13  0.828722E-09  0.136731E-07  0.110362E-09  0.135970E-07
      18.500  0.119450505577E+13  0.819438E-09  0.135179E-07  0.105201E-09  0.134369E-07
      19.500  0.118226647968E+13  0.811042E-09  0.133932E-07  0.100925E-09  0.132936E-07
      21.500  0.116311623741E+13  0.797905E-09  0.131847E-07  0.920077E-10  0.130574E-07
      23.500  0.115027231512E+13  0.789095E-09  0.130189E-07  0.861913E-10  0.128832E-07
      25.500  0.114132740298E+13  0.782959E-09  0.128780E-07  0.806572E-10  0.127472E-07
      27.500  0.113597708219E+13  0.779289E-09  0.127900E-07  0.770825E-10  0.126639E-07
      29.500  0.113143231322E+13  0.776172E-09  0.127147E-07  0.731439E-10  0.125954E-07
      31.500  0.113000731507E+13  0.775194E-09  0.126589E-07  0.703872E-10  0.125385E-07
      33.500  0.112966255780E+13  0.774958E-09  0.126168E-07  0.678897E-10  0.124937E-07
      35.500  0.112922101879E+13  0.774655E-09  0.125741E-07  0.652876E-10  0.124450E-07
      37.500  0.112983187082E+13  0.775074E-09  0.125439E-07  0.624551E-10  0.124103E-07
      39.500  0.113190642070E+13  0.776497E-09  0.125271E-07  0.605267E-10  0.123897E-07
      41.500  0.113507105542E+13  0.778668E-09  0.125109E-07  0.594575E-10  0.123708E-07
      43.500  0.113905259922E+13  0.781399E-09  0.125015E-07  0.584532E-10  0.123592E-07
      45.500  0.114361751426E+13  0.784531E-09  0.124936E-07  0.576944E-10  0.123486E-07
      47.500  0.114868253368E+13  0.788006E-09  0.124836E-07  0.571463E-10  0.123361E-07
      49.500  0.115377429495E+13  0.791499E-09  0.124724E-07  0.562724E-10  0.123239E-07
      51.500  0.116237396708E+13  0.797398E-09  0.124519E-07  0.554599E-10  0.123022E-07
      53.500  0.120674807014E+13  0.827839E-09  0.124268E-07  0.551195E-10  0.122752E-07
      55.500  0.137217867970E+13  0.941326E-09  0.124103E-07  0.544681E-10  0.122577E-07
      57.500  0.169068697352E+13  0.115983E-08  0.123974E-07  0.541916E-10  0.122427E-07
      59.500  0.207302483183E+13  0.142211E-08  0.123909E-07  0.539336E-10  0.122351E-07
      61.500  0.258988726260E+13  0.177668E-08  0.123900E-07  0.534204E-10  0.122334E-07
      63.500  0.323807803323E+13  0.222135E-08  0.124067E-07  0.529426E-10  0.122490E-07
      65.500  0.402048094575E+13  0.275808E-08  0.124306E-07  0.526069E-10  0.122719E-07
      67.500  0.497459263445E+13  0.341261E-08  0.124562E-07  0.523580E-10  0.122966E-07
      69.500  0.606209389559E+13  0.415865E-08  0.124889E-07  0.518675E-10  0.123285E-07
      71.500  0.732023104627E+13  0.502174E-08  0.125315E-07  0.513378E-10  0.123698E-07
      73.500  0.871298587822E+13  0.597718E-08  0.125815E-07  0.507322E-10  0.124186E-07
      75.500  0.101465766149E+14  0.696064E-08  0.126425E-07  0.498534E-10  0.124782E-07
      77.500  0.116041344629E+14  0.796053E-08  0.126998E-07  0.490212E-10  0.125342E-07
      79.500  0.130950655365E+14  0.898333E-08  0.127622E-07  0.488889E-10  0.125953E-07
      81.500  0.146277775511E+14  0.100348E-07  0.128245E-07  0.484616E-10  0.126561E-07
      83.500  0.161836464758E+14  0.111021E-07  0.128872E-07  0.479363E-10  0.127175E-07
      85.500  0.177576132819E+14  0.121819E-07  0.129451E-07  0.470134E-10  0.127745E-07
      87.500  0.193848014950E+14  0.132981E-07  0.130054E-07  0.462944E-10  0.128335E-07
      89.500  0.210743160359E+14  0.144572E-07  0.130683E-07  0.459789E-10  0.128946E-07
      91.500  0.228601342441E+14  0.156822E-07  0.131313E-07  0.453897E-10  0.129563E-07
      93.500  0.247482792925E+14  0.169775E-07  0.132013E-07  0.452612E-10  0.130250E-07
      95.500  0.267919825771E+14  0.183795E-07  0.132735E-07  0.450190E-10  0.130957E-07
      97.500  0.289806831372E+14  0.198810E-07  0.133409E-07  0.447259E-10  0.131620E-07
      99.500  0.313030784944E+14  0.214742E-07  0.134061E-07  0.446808E-10  0.132257E-07
     104.500  0.374555532580E+14  0.256948E-07  0.135725E-07  0.444493E-10  0.133891E-07
     109.500  0.440543132228E+14  0.302216E-07  0.137373E-07  0.439402E-10  0.135517E-07
     114.500  0.511756287686E+14  0.351069E-07  0.139329E-07  0.435216E-10  0.137445E-07
     119.500  0.585737308360E+14  0.401821E-07  0.141232E-07  0.436528E-10  0.139310E-07
     124.500  0.660288382773E+14  0.452963E-07  0.143117E-07  0.433964E-10  0.141168E-07
     129.500  0.736861752480E+14  0.505493E-07  0.144873E-07  0.433206E-10  0.142917E-07
     134.500  0.815214201086E+14  0.559244E-07  0.146657E-07  0.429561E-10  0.144682E-07
     139.500  0.894906786063E+14  0.613914E-07  0.148381E-07  0.428303E-10  0.146364E-07
     144.500  0.975276158188E+14  0.669048E-07  0.150087E-07  0.431967E-10  0.148061E-07
     149.500  0.105620244074E+15  0.724564E-07  0.151760E-07  0.432330E-10  0.149712E-07
     154.500  0.113662851421E+15  0.779737E-07  0.153345E-07  0.431680E-10  0.151274E-07
     159.500  0.121493037605E+15  0.833452E-07  0.154835E-07  0.433260E-10  0.152743E-07
     164.500  0.129115505657E+15  0.885743E-07  0.156213E-07  0.433001E-10  0.154101E-07
     169.500  0.136628438781E+15  0.937283E-07  0.157583E-07  0.432848E-10  0.155452E-07
     174.500  0.144112426737E+15  0.988623E-07  0.158886E-07  0.432297E-10  0.156736E-07
     179.500  0.151723747743E+15  0.104084E-06  0.160146E-07  0.432464E-10  0.157979E-07
     184.500  0.159460435505E+15  0.109391E-06  0.161361E-07  0.431445E-10  0.159175E-07
     189.500  0.167163178282E+15  0.114675E-06  0.162502E-07  0.430566E-10  0.160302E-07
     194.500  0.174746507748E+15  0.119878E-06  0.163681E-07  0.427456E-10  0.161460E-07
     199.500  0.182209082112E+15  0.124997E-06  0.164796E-07  0.427957E-10  0.162555E-07
     204.500  0.189546367103E+15  0.130030E-06  0.165897E-07  0.427037E-10  0.163634E-07
     209.500  0.196755580902E+15  0.134976E-06  0.166942E-07  0.426272E-10  0.164644E-07
     214.500  0.203828881949E+15  0.139828E-06  0.167901E-07  0.423713E-10  0.165576E-07
     219.500  0.210791568224E+15  0.144605E-06  0.168834E-07  0.418706E-10  0.166481E-07
     224.500  0.217703557778E+15  0.149346E-06  0.169738E-07  0.417661E-10  0.167370E-07
     229.500  0.224562623099E+15  0.154052E-06  0.170555E-07  0.417694E-10  0.168169E-07
     234.500  0.231358815522E+15  0.158714E-06  0.171327E-07  0.418492E-10  0.168924E-07
     239.500  0.238053150835E+15  0.163306E-06  0.172103E-07  0.417809E-10  0.169678E-07
     244.500  0.244619940622E+15  0.167811E-06  0.172872E-07  0.418072E-10  0.170403E-07
     249.500  0.251014575838E+15  0.172198E-06  0.173589E-07  0.420318E-10  0.171095E-07
     254.500  0.257219260442E+15  0.176455E-06  0.174282E-07  0.419446E-10  0.171774E-07
     259.500  0.263246762271E+15  0.180589E-06  0.174969E-07  0.417990E-10  0.172436E-07
     264.500  0.269098216378E+15  0.184604E-06  0.175610E-07  0.415843E-10  0.173060E-07
     269.500  0.274790104416E+15  0.188508E-06  0.176284E-07  0.409576E-10  0.173675E-07
     274.500  0.280335057449E+15  0.192312E-06  0.176843E-07  0.405736E-10  0.174254E-07
     279.500  0.285733674136E+15  0.196016E-06  0.177438E-07  0.401029E-10  0.174817E-07
     284.500  0.290978119289E+15  0.199613E-06  0.177985E-07  0.400359E-10  0.175349E-07
     289.500  0.296068569796E+15  0.203106E-06  0.178519E-07  0.396289E-10  0.175865E-07
     294.500  0.300995271966E+15  0.206485E-06  0.179022E-07  0.395476E-10  0.176358E-07
     299.500  0.305747950391E+15  0.209746E-06  0.179464E-07  0.395326E-10  0.176778E-07
     304.500  0.310322602905E+15  0.212884E-06  0.179912E-07  0.395662E-10  0.177220E-07
     309.500  0.314721221297E+15  0.215901E-06  0.180318E-07  0.395312E-10  0.177608E-07
     314.500  0.318949455791E+15  0.218802E-06  0.180720E-07  0.395342E-10  0.177996E-07
     319.500  0.323012940289E+15  0.221590E-06  0.181082E-07  0.395559E-10  0.178360E-07
     324.500  0.326914467585E+15  0.224266E-06  0.181448E-07  0.396563E-10  0.178716E-07
     329.500  0.330656038443E+15  0.226833E-06  0.181778E-07  0.397245E-10  0.179034E-07
     334.500  0.334243507769E+15  0.229294E-06  0.182083E-07  0.397170E-10  0.179329E-07
     339.500  0.337691042240E+15  0.231659E-06  0.182368E-07  0.396385E-10  0.179609E-07
     344.500  0.341002244317E+15  0.233930E-06  0.182671E-07  0.396235E-10  0.179896E-07
     349.500  0.344171459286E+15  0.236105E-06  0.182907E-07  0.396280E-10  0.180116E-07
     354.500  0.347200128219E+15  0.238182E-06  0.183138E-07  0.397260E-10  0.180368E-07
     359.500  0.350094528321E+15  0.240168E-06  0.183346E-07  0.398084E-10  0.180572E-07
     364.500  0.352859954398E+15  0.242065E-06  0.183542E-07  0.398758E-10  0.180757E-07
     369.500  0.355501103735E+15  0.243877E-06  0.183732E-07  0.398439E-10  0.180942E-07
     374.500  0.358022980885E+15  0.245607E-06  0.183941E-07  0.398328E-10  0.181118E-07
     379.500  0.360428367989E+15  0.247257E-06  0.184131E-07  0.398143E-10  0.181281E-07
     384.500  0.362719616802E+15  0.248829E-06  0.184296E-07  0.398560E-10  0.181447E-07
     389.500  0.364898595878E+15  0.250324E-06  0.184411E-07  0.398518E-10  0.181555E-07
     394.500  0.366968828063E+15  0.251744E-06  0.184550E-07  0.399199E-10  0.181698E-07
     399.500  0.368932761579E+15  0.253091E-06  0.184588E-07  0.394024E-10  0.181784E-07
     404.500  0.370794213340E+15  0.254368E-06  0.184719E-07  0.393666E-10  0.181890E-07
     409.500  0.372556186220E+15  0.255577E-06  0.184763E-07  0.393546E-10  0.181923E-07
     414.500  0.374224536862E+15  0.256721E-06  0.184847E-07  0.392732E-10  0.181969E-07
     419.500  0.375802447109E+15  0.257804E-06  0.184881E-07  0.392062E-10  0.181961E-07
     424.500  0.377297614931E+15  0.258829E-06  0.185007E-07  0.391600E-10  0.182007E-07
     429.500  0.378710285770E+15  0.259799E-06  0.185083E-07  0.391393E-10  0.182044E-07
     434.500  0.380038696281E+15  0.260710E-06  0.185113E-07  0.391518E-10  0.182074E-07
     439.500  0.381286456266E+15  0.261566E-06  0.185134E-07  0.391327E-10  0.182095E-07
     444.500  0.382462843834E+15  0.262373E-06  0.185137E-07  0.391527E-10  0.182100E-07
     449.500  0.383571731545E+15  0.263134E-06  0.185156E-07  0.389947E-10  0.182117E-07
     454.500  0.384616207313E+15  0.263850E-06  0.185154E-07  0.390011E-10  0.182104E-07
     459.500  0.385600796896E+15  0.264526E-06  0.185157E-07  0.389913E-10  0.182093E-07
     464.500  0.386525079834E+15  0.265160E-06  0.185146E-07  0.388905E-10  0.182075E-07
     469.500  0.387388234593E+15  0.265752E-06  0.185085E-07  0.388166E-10  0.182033E-07
     474.500  0.388192081330E+15  0.266303E-06  0.185014E-07  0.387046E-10  0.182001E-07
     479.500  0.388940456151E+15  0.266817E-06  0.184970E-07  0.387701E-10  0.181958E-07
     484.500  0.389633401186E+15  0.267292E-06  0.184917E-07  0.385127E-10  0.181905E-07
     489.500  0.390275501325E+15  0.267732E-06  0.184879E-07  0.385695E-10  0.181867E-07
     494.500  0.390872338806E+15  0.268142E-06  0.184749E-07  0.385767E-10  0.181771E-07
     499.500  0.391426168749E+15  0.268522E-06  0.184758E-07  0.386041E-10  0.181739E-07
     504.500  0.391942393318E+15  0.268876E-06  0.184665E-07  0.386176E-10  0.181644E-07
     509.500  0.392421863087E+15  0.269205E-06  0.184613E-07  0.386202E-10  0.181582E-07
     514.500  0.392862169545E+15  0.269507E-06  0.184517E-07  0.386224E-10  0.181481E-07
     519.500  0.393264639524E+15  0.269783E-06  0.184474E-07  0.386352E-10  0.181426E-07
     524.500  0.393627919265E+15  0.270032E-06  0.184360E-07  0.386347E-10  0.181306E-07
     529.500  0.393954788879E+15  0.270256E-06  0.184296E-07  0.386477E-10  0.181238E-07
     534.500  0.394245474567E+15  0.270456E-06  0.184196E-07  0.384442E-10  0.181138E-07
     539.500  0.394503960379E+15  0.270633E-06  0.184065E-07  0.384512E-10  0.181033E-07
     544.500  0.394731789374E+15  0.270789E-06  0.183982E-07  0.384836E-10  0.180937E-07
     549.500  0.394929974138E+15  0.270925E-06  0.183890E-07  0.385492E-10  0.180814E-07
     554.500  0.395096817821E+15  0.271040E-06  0.183820E-07  0.386046E-10  0.180736E-07
     559.500  0.395229933413E+15  0.271131E-06  0.183659E-07  0.386262E-10  0.180579E-07
     564.500  0.395333557570E+15  0.271202E-06  0.183618E-07  0.386398E-10  0.180445E-07
     569.500  0.395410807521E+15  0.271255E-06  0.183553E-07  0.386791E-10  0.180366E-07
     574.500  0.395465522389E+15  0.271293E-06  0.183394E-07  0.387010E-10  0.180211E-07
     579.500  0.395499994532E+15  0.271317E-06  0.183279E-07  0.387141E-10  0.180085E-07
     584.500  0.395513886725E+15  0.271326E-06  0.183182E-07  0.387184E-10  0.179969E-07
     589.500  0.395508337954E+15  0.271322E-06  0.183038E-07  0.387327E-10  0.179862E-07
     594.500  0.395483979685E+15  0.271306E-06  0.182907E-07  0.387836E-10  0.179719E-07
     599.500  0.395443663989E+15  0.271278E-06  0.182830E-07  0.387848E-10  0.179610E-07
     604.500  0.395384827989E+15  0.271238E-06  0.182674E-07  0.387907E-10  0.179475E-07
     609.500  0.395311716143E+15  0.271187E-06  0.182565E-07  0.388544E-10  0.179358E-07
     614.500  0.395221479044E+15  0.271125E-06  0.182483E-07  0.388802E-10  0.179221E-07
     619.500  0.395116438864E+15  0.271053E-06  0.182341E-07  0.389271E-10  0.179088E-07
     624.500  0.394997095362E+15  0.270972E-06  0.182290E-07  0.389340E-10  0.178926E-07
     629.500  0.394864511960E+15  0.270881E-06  0.182169E-07  0.389521E-10  0.178785E-07
     634.500  0.394719394186E+15  0.270781E-06  0.182035E-07  0.390148E-10  0.178638E-07
     639.500  0.394561158167E+15  0.270672E-06  0.181831E-07  0.390722E-10  0.178465E-07
     644.500  0.394392381123E+15  0.270557E-06  0.181582E-07  0.391169E-10  0.178290E-07
     649.500  0.394210301884E+15  0.270432E-06  0.181559E-07  0.390851E-10  0.178091E-07
     654.500  0.394019058287E+15  0.270301E-06  0.181407E-07  0.390981E-10  0.177937E-07
     659.500  0.393816341388E+15  0.270162E-06  0.181195E-07  0.390077E-10  0.177742E-07
     664.500  0.393601271663E+15  0.270014E-06  0.180964E-07  0.391480E-10  0.177523E-07
     669.500  0.393379461859E+15  0.269862E-06  0.180853E-07  0.392937E-10  0.177332E-07
     674.500  0.393147519080E+15  0.269703E-06  0.180727E-07  0.394229E-10  0.177135E-07
     679.500  0.392903728356E+15  0.269536E-06  0.180539E-07  0.393048E-10  0.176894E-07
     684.500  0.392648430062E+15  0.269360E-06  0.180386E-07  0.393269E-10  0.176722E-07
     689.500  0.392380564099E+15  0.269177E-06  0.180161E-07  0.394147E-10  0.176508E-07
     694.500  0.392103003308E+15  0.268986E-06  0.179993E-07  0.394140E-10  0.176338E-07
     699.500  0.391813288215E+15  0.268788E-06  0.179823E-07  0.394573E-10  0.176157E-07
     704.500  0.391508077388E+15  0.268578E-06  0.179616E-07  0.394812E-10  0.175955E-07
     709.500  0.391188024766E+15  0.268359E-06  0.179508E-07  0.394037E-10  0.175786E-07
     714.500  0.390855860095E+15  0.268131E-06  0.179343E-07  0.394752E-10  0.175618E-07
     719.500  0.390512711221E+15  0.267895E-06  0.179125E-07  0.394802E-10  0.175412E-07
     724.500  0.390157194575E+15  0.267652E-06  0.178970E-07  0.393397E-10  0.175179E-07
     729.500  0.389788817186E+15  0.267399E-06  0.178772E-07  0.393344E-10  0.174935E-07
     734.500  0.389412093747E+15  0.267140E-06  0.178598E-07  0.392470E-10  0.174734E-07
     739.500  0.389034282268E+15  0.266881E-06  0.178394E-07  0.391530E-10  0.174465E-07
     744.500  0.388657853643E+15  0.266623E-06  0.178158E-07  0.390679E-10  0.174176E-07
     749.500  0.388284127699E+15  0.266367E-06  0.178001E-07  0.390904E-10  0.173948E-07
     754.500  0.387906924136E+15  0.266108E-06  0.177802E-07  0.390475E-10  0.173683E-07
     759.500  0.387523895210E+15  0.265845E-06  0.177588E-07  0.388614E-10  0.173469E-07
     764.500  0.387136764128E+15  0.265580E-06  0.177411E-07  0.388375E-10  0.173210E-07
     769.500  0.386738779782E+15  0.265307E-06  0.177142E-07  0.387037E-10  0.172935E-07
     774.500  0.386323994204E+15  0.265022E-06  0.176904E-07  0.386735E-10  0.172655E-07
     779.500  0.385887687951E+15  0.264723E-06  0.176610E-07  0.386043E-10  0.172351E-07
     784.500  0.385429794327E+15  0.264409E-06  0.176338E-07  0.385948E-10  0.172077E-07
     789.500  0.384946752649E+15  0.264077E-06  0.176066E-07  0.386063E-10  0.171771E-07
     794.500  0.384442853431E+15  0.263732E-06  0.175789E-07  0.385522E-10  0.171478E-07
     799.500  0.383921078209E+15  0.263374E-06  0.175492E-07  0.386311E-10  0.171191E-07
     804.500  0.383382102879E+15  0.263004E-06  0.175242E-07  0.386654E-10  0.170935E-07
     809.500  0.382829718776E+15  0.262625E-06  0.174922E-07  0.386444E-10  0.170656E-07
     814.500  0.382264772557E+15  0.262238E-06  0.174698E-07  0.385290E-10  0.170409E-07
     819.500  0.381690832795E+15  0.261844E-06  0.174382E-07  0.385108E-10  0.170101E-07
     824.500  0.381106490019E+15  0.261443E-06  0.174156E-07  0.383986E-10  0.169873E-07
     829.500  0.380512847223E+15  0.261036E-06  0.173882E-07  0.384703E-10  0.169578E-07
     834.500  0.379912592815E+15  0.260624E-06  0.173653E-07  0.382090E-10  0.169332E-07
     839.500  0.379310191621E+15  0.260211E-06  0.173411E-07  0.381766E-10  0.169094E-07
     844.500  0.378704889252E+15  0.259795E-06  0.173188E-07  0.381577E-10  0.168867E-07
     849.500  0.378097218337E+15  0.259379E-06  0.172894E-07  0.381064E-10  0.168558E-07
     854.500  0.377488879238E+15  0.258961E-06  0.172692E-07  0.380814E-10  0.168354E-07
     859.500  0.376882501519E+15  0.258545E-06  0.172452E-07  0.380789E-10  0.168120E-07
     864.500  0.376280831144E+15  0.258133E-06  0.172232E-07  0.380429E-10  0.167893E-07
     869.500  0.375682618477E+15  0.257722E-06  0.171997E-07  0.380413E-10  0.167666E-07
     874.500  0.375087573470E+15  0.257314E-06  0.171808E-07  0.380464E-10  0.167459E-07
     879.500  0.374495099408E+15  0.256908E-06  0.171585E-07  0.380850E-10  0.167246E-07
     884.500  0.373906493032E+15  0.256504E-06  0.171367E-07  0.380004E-10  0.167012E-07
     889.500  0.373324138835E+15  0.256104E-06  0.171199E-07  0.379586E-10  0.166820E-07
     894.500  0.372748631254E+15  0.255709E-06  0.170995E-07  0.379903E-10  0.166589E-07
     899.500  0.372183616384E+15  0.255322E-06  0.170806E-07  0.379609E-10  0.166393E-07
     904.500  0.371632423028E+15  0.254944E-06  0.170629E-07  0.379492E-10  0.166217E-07
     909.500  0.371092606909E+15  0.254573E-06  0.170450E-07  0.379570E-10  0.166041E-07
