 % time (yr) / global POP flux (mol yr-1) / global POP density (mol m-2 yr-1) / global POP DOM fraction
       0.500  0.2224748E+14  0.6132905E-01    0.660
       1.500  0.1718673E+14  0.4737820E-01    0.660
       2.500  0.1526744E+14  0.4208736E-01    0.660
       3.500  0.1403569E+14  0.3869181E-01    0.660
       4.500  0.1318350E+14  0.3634261E-01    0.660
       5.500  0.1255073E+14  0.3459828E-01    0.660
       6.500  0.1204839E+14  0.3321349E-01    0.660
       7.500  0.1161144E+14  0.3200895E-01    0.660
       8.500  0.1122997E+14  0.3095736E-01    0.660
       9.500  0.1090343E+14  0.3005720E-01    0.660
      10.500  0.1062492E+14  0.2928944E-01    0.660
      11.500  0.1038665E+14  0.2863260E-01    0.660
      12.500  0.1017830E+14  0.2805824E-01    0.660
      13.500  0.9994715E+13  0.2755217E-01    0.660
      14.500  0.9828803E+13  0.2709480E-01    0.660
      15.500  0.9681517E+13  0.2668878E-01    0.660
      16.500  0.9548788E+13  0.2632289E-01    0.660
      17.500  0.9431851E+13  0.2600053E-01    0.660
      18.500  0.9329673E+13  0.2571886E-01    0.660
      19.500  0.9235414E+13  0.2545902E-01    0.660
      21.500  0.9077577E+13  0.2502392E-01    0.660
      23.500  0.8960081E+13  0.2470002E-01    0.660
      25.500  0.8869830E+13  0.2445123E-01    0.660
      27.500  0.8801358E+13  0.2426247E-01    0.660
      29.500  0.8738636E+13  0.2408957E-01    0.660
      31.500  0.8696942E+13  0.2397463E-01    0.660
      33.500  0.8659831E+13  0.2387233E-01    0.660
      35.500  0.8622867E+13  0.2377043E-01    0.660
      37.500  0.8592849E+13  0.2368768E-01    0.660
      39.500  0.8571759E+13  0.2362954E-01    0.660
      41.500  0.8558760E+13  0.2359371E-01    0.660
      43.500  0.8550054E+13  0.2356971E-01    0.660
      45.500  0.8544439E+13  0.2355423E-01    0.660
      47.500  0.8540294E+13  0.2354280E-01    0.660
      49.500  0.8530307E+13  0.2351527E-01    0.660
      51.500  0.8516099E+13  0.2347611E-01    0.660
      53.500  0.8502613E+13  0.2343893E-01    0.660
      55.500  0.8493575E+13  0.2341401E-01    0.660
      57.500  0.8485338E+13  0.2339131E-01    0.660
      59.500  0.8479813E+13  0.2337608E-01    0.660
      61.500  0.8476316E+13  0.2336644E-01    0.660
      63.500  0.8475027E+13  0.2336288E-01    0.660
      65.500  0.8476817E+13  0.2336782E-01    0.660
      67.500  0.8479417E+13  0.2337499E-01    0.660
      69.500  0.8482998E+13  0.2338486E-01    0.660
      71.500  0.8487467E+13  0.2339718E-01    0.660
      73.500  0.8496683E+13  0.2342258E-01    0.660
      75.500  0.8505854E+13  0.2344786E-01    0.660
      77.500  0.8514902E+13  0.2347281E-01    0.660
      79.500  0.8523119E+13  0.2349546E-01    0.660
      81.500  0.8529531E+13  0.2351313E-01    0.660
      83.500  0.8535078E+13  0.2352842E-01    0.660
      85.500  0.8540959E+13  0.2354464E-01    0.660
      87.500  0.8549257E+13  0.2356751E-01    0.660
      89.500  0.8557018E+13  0.2358891E-01    0.660
      91.500  0.8565118E+13  0.2361124E-01    0.660
      93.500  0.8573740E+13  0.2363500E-01    0.660
      95.500  0.8581896E+13  0.2365749E-01    0.660
      97.500  0.8589799E+13  0.2367927E-01    0.660
      99.500  0.8597803E+13  0.2370134E-01    0.660
     104.500  0.8618580E+13  0.2375861E-01    0.660
     109.500  0.8637083E+13  0.2380962E-01    0.660
     114.500  0.8653640E+13  0.2385526E-01    0.660
     119.500  0.8667665E+13  0.2389392E-01    0.660
     124.500  0.8682217E+13  0.2393404E-01    0.660
     129.500  0.8696710E+13  0.2397399E-01    0.660
     134.500  0.8712731E+13  0.2401815E-01    0.660
     139.500  0.8728888E+13  0.2406270E-01    0.660
     144.500  0.8744596E+13  0.2410600E-01    0.660
     149.500  0.8758882E+13  0.2414538E-01    0.660
     154.500  0.8772314E+13  0.2418241E-01    0.660
     159.500  0.8785457E+13  0.2421864E-01    0.660
     164.500  0.8796973E+13  0.2425038E-01    0.660
     169.500  0.8807245E+13  0.2427870E-01    0.660
     174.500  0.8817863E+13  0.2430797E-01    0.660
     179.500  0.8827949E+13  0.2433578E-01    0.660
     184.500  0.8835481E+13  0.2435654E-01    0.660
     189.500  0.8842094E+13  0.2437477E-01    0.660
     194.500  0.8847784E+13  0.2439045E-01    0.660
     199.500  0.8854941E+13  0.2441018E-01    0.660
     204.500  0.8859068E+13  0.2442156E-01    0.660
     209.500  0.8864641E+13  0.2443692E-01    0.660
     214.500  0.8868182E+13  0.2444668E-01    0.660
     219.500  0.8870810E+13  0.2445393E-01    0.660
     224.500  0.8873507E+13  0.2446136E-01    0.660
     229.500  0.8875235E+13  0.2446613E-01    0.660
     234.500  0.8876562E+13  0.2446978E-01    0.660
     239.500  0.8876467E+13  0.2446952E-01    0.660
     244.500  0.8877616E+13  0.2447269E-01    0.660
     249.500  0.8877198E+13  0.2447154E-01    0.660
     254.500  0.8876359E+13  0.2446922E-01    0.660
     259.500  0.8874247E+13  0.2446340E-01    0.660
     264.500  0.8873156E+13  0.2446039E-01    0.660
     269.500  0.8870194E+13  0.2445223E-01    0.660
     274.500  0.8868256E+13  0.2444689E-01    0.660
     279.500  0.8865739E+13  0.2443995E-01    0.660
     284.500  0.8863799E+13  0.2443460E-01    0.660
     289.500  0.8861351E+13  0.2442785E-01    0.660
     294.500  0.8859775E+13  0.2442351E-01    0.660
     299.500  0.8856403E+13  0.2441421E-01    0.660
     304.500  0.8853882E+13  0.2440726E-01    0.660
     309.500  0.8850600E+13  0.2439822E-01    0.660
     314.500  0.8848484E+13  0.2439238E-01    0.660
     319.500  0.8845979E+13  0.2438548E-01    0.660
     324.500  0.8843129E+13  0.2437762E-01    0.660
     329.500  0.8839478E+13  0.2436756E-01    0.660
     334.500  0.8837007E+13  0.2436075E-01    0.660
     339.500  0.8833834E+13  0.2435200E-01    0.660
     344.500  0.8829149E+13  0.2433908E-01    0.660
     349.500  0.8826949E+13  0.2433302E-01    0.660
     354.500  0.8822479E+13  0.2432070E-01    0.660
     359.500  0.8816599E+13  0.2430449E-01    0.660
     364.500  0.8813408E+13  0.2429569E-01    0.660
     369.500  0.8808427E+13  0.2428196E-01    0.660
     374.500  0.8804334E+13  0.2427068E-01    0.660
     379.500  0.8799299E+13  0.2425679E-01    0.660
     384.500  0.8795649E+13  0.2424674E-01    0.660
     389.500  0.8791415E+13  0.2423506E-01    0.660
     394.500  0.8788565E+13  0.2422720E-01    0.660
     399.500  0.8783501E+13  0.2421325E-01    0.660
     404.500  0.8777658E+13  0.2419714E-01    0.660
     409.500  0.8771891E+13  0.2418124E-01    0.660
     414.500  0.8764511E+13  0.2416090E-01    0.660
     419.500  0.8757152E+13  0.2414061E-01    0.660
     424.500  0.8751086E+13  0.2412389E-01    0.660
     429.500  0.8746165E+13  0.2411032E-01    0.660
     434.500  0.8740161E+13  0.2409377E-01    0.660
     439.500  0.8735049E+13  0.2407968E-01    0.660
     444.500  0.8729857E+13  0.2406537E-01    0.660
     449.500  0.8725446E+13  0.2405321E-01    0.660
     454.500  0.8720937E+13  0.2404078E-01    0.660
     459.500  0.8715986E+13  0.2402713E-01    0.660
     464.500  0.8710842E+13  0.2401295E-01    0.660
     469.500  0.8706416E+13  0.2400075E-01    0.660
     474.500  0.8702233E+13  0.2398922E-01    0.660
     479.500  0.8696760E+13  0.2397413E-01    0.660
     484.500  0.8692617E+13  0.2396271E-01    0.660
     489.500  0.8688306E+13  0.2395083E-01    0.660
     494.500  0.8684599E+13  0.2394060E-01    0.660
     499.500  0.8679464E+13  0.2392645E-01    0.660
     504.500  0.8674805E+13  0.2391361E-01    0.660
     509.500  0.8670375E+13  0.2390139E-01    0.660
     514.500  0.8665255E+13  0.2388728E-01    0.660
     519.500  0.8661179E+13  0.2387604E-01    0.660
     524.500  0.8655992E+13  0.2386174E-01    0.660
     529.500  0.8651487E+13  0.2384933E-01    0.660
     534.500  0.8646687E+13  0.2383609E-01    0.660
     539.500  0.8643006E+13  0.2382595E-01    0.660
     544.500  0.8636940E+13  0.2380922E-01    0.660
     549.500  0.8629833E+13  0.2378963E-01    0.660
     554.500  0.8624466E+13  0.2377484E-01    0.660
     559.500  0.8620036E+13  0.2376263E-01    0.660
     564.500  0.8613503E+13  0.2374462E-01    0.660
     569.500  0.8607731E+13  0.2372871E-01    0.660
     574.500  0.8602538E+13  0.2371439E-01    0.660
     579.500  0.8596682E+13  0.2369825E-01    0.660
     584.500  0.8590869E+13  0.2368222E-01    0.660
     589.500  0.8586211E+13  0.2366938E-01    0.660
     594.500  0.8580911E+13  0.2365477E-01    0.660
     599.500  0.8575245E+13  0.2363915E-01    0.660
     604.500  0.8570068E+13  0.2362488E-01    0.660
     609.500  0.8565628E+13  0.2361264E-01    0.660
     614.500  0.8560254E+13  0.2359783E-01    0.660
     619.500  0.8555587E+13  0.2358496E-01    0.660
     624.500  0.8550168E+13  0.2357002E-01    0.660
     629.500  0.8544064E+13  0.2355320E-01    0.660
     634.500  0.8539683E+13  0.2354112E-01    0.660
     639.500  0.8533648E+13  0.2352448E-01    0.660
     644.500  0.8528985E+13  0.2351163E-01    0.660
     649.500  0.8519472E+13  0.2348540E-01    0.660
     654.500  0.8512883E+13  0.2346724E-01    0.660
     659.500  0.8505536E+13  0.2344699E-01    0.660
     664.500  0.8496549E+13  0.2342221E-01    0.660
     669.500  0.8489386E+13  0.2340247E-01    0.660
     674.500  0.8482340E+13  0.2338304E-01    0.660
     679.500  0.8470731E+13  0.2335104E-01    0.660
     684.500  0.8463297E+13  0.2333055E-01    0.660
     689.500  0.8456726E+13  0.2331243E-01    0.660
     694.500  0.8449690E+13  0.2329304E-01    0.660
     699.500  0.8442849E+13  0.2327418E-01    0.660
     704.500  0.8435345E+13  0.2325349E-01    0.660
     709.500  0.8426329E+13  0.2322864E-01    0.660
     714.500  0.8420602E+13  0.2321285E-01    0.660
     719.500  0.8413560E+13  0.2319344E-01    0.660
     724.500  0.8403708E+13  0.2316628E-01    0.660
     729.500  0.8395201E+13  0.2314283E-01    0.660
     734.500  0.8385027E+13  0.2311478E-01    0.660
     739.500  0.8372559E+13  0.2308041E-01    0.660
     744.500  0.8361668E+13  0.2305039E-01    0.660
     749.500  0.8348052E+13  0.2301286E-01    0.660
     754.500  0.8336890E+13  0.2298208E-01    0.660
     759.500  0.8324997E+13  0.2294930E-01    0.660
     764.500  0.8311733E+13  0.2291274E-01    0.660
     769.500  0.8301659E+13  0.2288497E-01    0.660
     774.500  0.8288260E+13  0.2284803E-01    0.660
     779.500  0.8276922E+13  0.2281677E-01    0.660
     784.500  0.8266285E+13  0.2278745E-01    0.660
     789.500  0.8255938E+13  0.2275893E-01    0.660
     794.500  0.8245562E+13  0.2273032E-01    0.660
     799.500  0.8236879E+13  0.2270639E-01    0.660
     804.500  0.8227229E+13  0.2267979E-01    0.660
     809.500  0.8219189E+13  0.2265762E-01    0.660
     814.500  0.8206521E+13  0.2262270E-01    0.660
     819.500  0.8197911E+13  0.2259897E-01    0.660
     824.500  0.8188507E+13  0.2257304E-01    0.660
     829.500  0.8179949E+13  0.2254945E-01    0.660
     834.500  0.8169583E+13  0.2252088E-01    0.660
     839.500  0.8162829E+13  0.2250226E-01    0.660
     844.500  0.8154729E+13  0.2247993E-01    0.660
     849.500  0.8146426E+13  0.2245704E-01    0.660
     854.500  0.8138416E+13  0.2243496E-01    0.660
     859.500  0.8131135E+13  0.2241489E-01    0.660
     864.500  0.8123474E+13  0.2239377E-01    0.660
     869.500  0.8116610E+13  0.2237484E-01    0.660
     874.500  0.8109437E+13  0.2235507E-01    0.660
     879.500  0.8104076E+13  0.2234029E-01    0.660
     884.500  0.8096799E+13  0.2232023E-01    0.660
     889.500  0.8088395E+13  0.2229707E-01    0.660
     894.500  0.8078720E+13  0.2227039E-01    0.660
     899.500  0.8072288E+13  0.2225266E-01    0.660
     904.500  0.8065096E+13  0.2223284E-01    0.660
     909.500  0.8060416E+13  0.2221994E-01    0.660
     914.500  0.8055718E+13  0.2220699E-01    0.660
     919.500  0.8052942E+13  0.2219933E-01    0.660
     924.500  0.8046751E+13  0.2218227E-01    0.660
     929.500  0.8042207E+13  0.2216974E-01    0.660
     934.500  0.8040511E+13  0.2216506E-01    0.660
     939.500  0.8034005E+13  0.2214713E-01    0.660
     944.500  0.8031817E+13  0.2214110E-01    0.660
     949.500  0.8026911E+13  0.2212757E-01    0.660
     954.500  0.8023593E+13  0.2211843E-01    0.660
     959.500  0.8020621E+13  0.2211023E-01    0.660
     964.500  0.8016353E+13  0.2209847E-01    0.660
     969.500  0.8012988E+13  0.2208919E-01    0.660
     974.500  0.8011039E+13  0.2208382E-01    0.660
     979.500  0.8006969E+13  0.2207260E-01    0.660
     984.500  0.8002718E+13  0.2206088E-01    0.660
     989.500  0.7999493E+13  0.2205199E-01    0.660
     994.500  0.7997871E+13  0.2204752E-01    0.660
     999.500  0.7995263E+13  0.2204033E-01    0.660
    1019.500  0.7982957E+13  0.2200641E-01    0.660
    1039.500  0.7970841E+13  0.2197301E-01    0.660
    1059.500  0.7962997E+13  0.2195138E-01    0.660
    1079.500  0.7956397E+13  0.2193319E-01    0.660
    1099.500  0.7949901E+13  0.2191528E-01    0.660
    1119.500  0.7945300E+13  0.2190260E-01    0.660
    1139.500  0.7938768E+13  0.2188459E-01    0.660
    1159.500  0.7934888E+13  0.2187390E-01    0.660
    1179.500  0.7928951E+13  0.2185753E-01    0.660
    1199.500  0.7923744E+13  0.2184318E-01    0.660
    1219.500  0.7921856E+13  0.2183797E-01    0.660
    1239.500  0.7919758E+13  0.2183219E-01    0.660
    1259.500  0.7916817E+13  0.2182408E-01    0.660
    1279.500  0.7911584E+13  0.2180966E-01    0.660
    1299.500  0.7908677E+13  0.2180164E-01    0.660
    1319.500  0.7906050E+13  0.2179440E-01    0.660
    1339.500  0.7904570E+13  0.2179032E-01    0.660
    1359.500  0.7903150E+13  0.2178641E-01    0.660
    1379.500  0.7900431E+13  0.2177891E-01    0.660
    1399.500  0.7897064E+13  0.2176963E-01    0.660
    1419.500  0.7895045E+13  0.2176406E-01    0.660
    1439.500  0.7893131E+13  0.2175879E-01    0.660
    1459.500  0.7892752E+13  0.2175774E-01    0.660
    1479.500  0.7891958E+13  0.2175555E-01    0.660
    1499.500  0.7887810E+13  0.2174412E-01    0.660
    1519.500  0.7886425E+13  0.2174030E-01    0.660
    1539.500  0.7883108E+13  0.2173116E-01    0.660
    1559.500  0.7882766E+13  0.2173021E-01    0.660
    1579.500  0.7883261E+13  0.2173158E-01    0.660
    1599.500  0.7881420E+13  0.2172650E-01    0.660
    1619.500  0.7877707E+13  0.2171627E-01    0.660
    1639.500  0.7875383E+13  0.2170986E-01    0.660
    1659.500  0.7873862E+13  0.2170567E-01    0.660
    1679.500  0.7874849E+13  0.2170839E-01    0.660
    1699.500  0.7871802E+13  0.2169999E-01    0.660
    1719.500  0.7869235E+13  0.2169291E-01    0.660
    1739.500  0.7866500E+13  0.2168537E-01    0.660
    1759.500  0.7864048E+13  0.2167861E-01    0.660
    1779.500  0.7861359E+13  0.2167120E-01    0.660
    1799.500  0.7861230E+13  0.2167085E-01    0.660
    1819.500  0.7860897E+13  0.2166993E-01    0.660
    1839.500  0.7857569E+13  0.2166075E-01    0.660
    1859.500  0.7854946E+13  0.2165352E-01    0.660
    1879.500  0.7853621E+13  0.2164987E-01    0.660
    1899.500  0.7851756E+13  0.2164473E-01    0.660
    1919.500  0.7851118E+13  0.2164297E-01    0.660
    1939.500  0.7848579E+13  0.2163597E-01    0.660
    1959.500  0.7846551E+13  0.2163038E-01    0.660
    1979.500  0.7843773E+13  0.2162272E-01    0.660
    1999.500  0.7842490E+13  0.2161918E-01    0.660
    2049.500  0.7840809E+13  0.2161455E-01    0.660
    2099.500  0.7833929E+13  0.2159559E-01    0.660
    2149.500  0.7831428E+13  0.2158869E-01    0.660
    2199.500  0.7826684E+13  0.2157561E-01    0.660
    2249.500  0.7824825E+13  0.2157049E-01    0.660
    2299.500  0.7818832E+13  0.2155397E-01    0.660
    2349.500  0.7816365E+13  0.2154717E-01    0.660
    2399.500  0.7813788E+13  0.2154006E-01    0.660
    2449.500  0.7808406E+13  0.2152523E-01    0.660
    2499.500  0.7810438E+13  0.2153083E-01    0.660
    2549.500  0.7805094E+13  0.2151610E-01    0.660
    2599.500  0.7806137E+13  0.2151897E-01    0.660
    2649.500  0.7802245E+13  0.2150824E-01    0.660
    2699.500  0.7801603E+13  0.2150647E-01    0.660
    2749.500  0.7800138E+13  0.2150243E-01    0.660
    2799.500  0.7799824E+13  0.2150157E-01    0.660
    2849.500  0.7798266E+13  0.2149727E-01    0.660
    2899.500  0.7795166E+13  0.2148873E-01    0.660
    2949.500  0.7795293E+13  0.2148908E-01    0.660
    2999.500  0.7793416E+13  0.2148390E-01    0.660
    3049.500  0.7793528E+13  0.2148421E-01    0.660
    3099.500  0.7792321E+13  0.2148089E-01    0.660
    3149.500  0.7791324E+13  0.2147814E-01    0.660
    3199.500  0.7791415E+13  0.2147839E-01    0.660
    3249.500  0.7791794E+13  0.2147943E-01    0.660
    3299.500  0.7791885E+13  0.2147968E-01    0.660
    3349.500  0.7790244E+13  0.2147516E-01    0.660
    3399.500  0.7792342E+13  0.2148094E-01    0.660
    3449.500  0.7791492E+13  0.2147860E-01    0.660
    3499.500  0.7793056E+13  0.2148291E-01    0.660
    3549.500  0.7792087E+13  0.2148024E-01    0.660
    3599.500  0.7791205E+13  0.2147781E-01    0.660
    3649.500  0.7792247E+13  0.2148068E-01    0.660
    3699.500  0.7791330E+13  0.2147815E-01    0.660
    3749.500  0.7792515E+13  0.2148142E-01    0.660
    3799.500  0.7790319E+13  0.2147537E-01    0.660
    3849.500  0.7792044E+13  0.2148012E-01    0.660
    3899.500  0.7790950E+13  0.2147711E-01    0.660
    3949.500  0.7791608E+13  0.2147892E-01    0.660
    3999.500  0.7789831E+13  0.2147402E-01    0.660
    4049.500  0.7789800E+13  0.2147394E-01    0.660
    4099.500  0.7790235E+13  0.2147514E-01    0.660
    4149.500  0.7788167E+13  0.2146944E-01    0.660
    4199.500  0.7792000E+13  0.2148000E-01    0.660
    4249.500  0.7789333E+13  0.2147265E-01    0.660
    4299.500  0.7790345E+13  0.2147544E-01    0.660
    4349.500  0.7788479E+13  0.2147029E-01    0.660
    4399.500  0.7789977E+13  0.2147443E-01    0.660
    4449.500  0.7790542E+13  0.2147598E-01    0.660
    4499.500  0.7788243E+13  0.2146964E-01    0.660
    4549.500  0.7789916E+13  0.2147426E-01    0.660
    4599.500  0.7787737E+13  0.2146825E-01    0.660
    4649.500  0.7791675E+13  0.2147910E-01    0.660
    4699.500  0.7787750E+13  0.2146829E-01    0.660
    4749.500  0.7789874E+13  0.2147414E-01    0.660
    4799.500  0.7787664E+13  0.2146805E-01    0.660
    4849.500  0.7787782E+13  0.2146837E-01    0.660
    4899.500  0.7788480E+13  0.2147030E-01    0.660
    4949.500  0.7786520E+13  0.2146489E-01    0.660
    4999.500  0.7788873E+13  0.2147138E-01    0.660
    5049.500  0.7786555E+13  0.2146499E-01    0.660
    5099.500  0.7788675E+13  0.2147084E-01    0.660
    5149.500  0.7786716E+13  0.2146543E-01    0.660
    5199.500  0.7788646E+13  0.2147076E-01    0.660
    5249.500  0.7787174E+13  0.2146670E-01    0.660
    5299.500  0.7786785E+13  0.2146562E-01    0.660
    5349.500  0.7788612E+13  0.2147066E-01    0.660
    5399.500  0.7786633E+13  0.2146520E-01    0.660
    5449.500  0.7788814E+13  0.2147122E-01    0.660
    5499.500  0.7786463E+13  0.2146474E-01    0.660
    5549.500  0.7788539E+13  0.2147046E-01    0.660
    5599.500  0.7786856E+13  0.2146582E-01    0.660
    5649.500  0.7788770E+13  0.2147110E-01    0.660
    5699.500  0.7787339E+13  0.2146715E-01    0.660
    5749.500  0.7786725E+13  0.2146546E-01    0.660
    5799.500  0.7788960E+13  0.2147162E-01    0.660
    5849.500  0.7786446E+13  0.2146469E-01    0.660
    5899.500  0.7788737E+13  0.2147101E-01    0.660
    5949.500  0.7787112E+13  0.2146653E-01    0.660
    5999.500  0.7789000E+13  0.2147173E-01    0.660
    6049.500  0.7787157E+13  0.2146665E-01    0.660
    6099.500  0.7788467E+13  0.2147026E-01    0.660
    6149.500  0.7787835E+13  0.2146852E-01    0.660
    6199.500  0.7786772E+13  0.2146559E-01    0.660
    6249.500  0.7789501E+13  0.2147311E-01    0.660
    6299.500  0.7786820E+13  0.2146572E-01    0.660
    6349.500  0.7789160E+13  0.2147217E-01    0.660
    6399.500  0.7788157E+13  0.2146941E-01    0.660
    6449.500  0.7789015E+13  0.2147177E-01    0.660
    6499.500  0.7787748E+13  0.2146828E-01    0.660
    6549.500  0.7788902E+13  0.2147146E-01    0.660
    6599.500  0.7788461E+13  0.2147024E-01    0.660
