 % time (yr) / global CaCO3 flux (mol yr-1) / global CaCO3 density (mol m-2 yr-1)
       0.500  0.1112492E+15  0.3066778E+00
       1.500  0.1106180E+15  0.3049378E+00
       2.500  0.1018592E+15  0.2807925E+00
       3.500  0.9528958E+14  0.2626823E+00
       4.500  0.9043057E+14  0.2492876E+00
       5.500  0.8671787E+14  0.2390529E+00
       6.500  0.8372412E+14  0.2308001E+00
       7.500  0.8107774E+14  0.2235049E+00
       8.500  0.7874357E+14  0.2170703E+00
       9.500  0.7672227E+14  0.2114982E+00
      10.500  0.7496408E+14  0.2066515E+00
      11.500  0.7345675E+14  0.2024963E+00
      12.500  0.7213537E+14  0.1988537E+00
      13.500  0.7098006E+14  0.1956689E+00
      14.500  0.6993730E+14  0.1927943E+00
      15.500  0.6901985E+14  0.1902652E+00
      16.500  0.6821849E+14  0.1880561E+00
      17.500  0.6751158E+14  0.1861074E+00
      18.500  0.6691610E+14  0.1844658E+00
      19.500  0.6638230E+14  0.1829943E+00
      21.500  0.6554010E+14  0.1806727E+00
      23.500  0.6496763E+14  0.1790945E+00
      25.500  0.6457256E+14  0.1780055E+00
      27.500  0.6434064E+14  0.1773661E+00
      29.500  0.6417716E+14  0.1769155E+00
      31.500  0.6412534E+14  0.1767726E+00
      33.500  0.6406349E+14  0.1766021E+00
      35.500  0.6398587E+14  0.1763882E+00
      37.500  0.6392634E+14  0.1762240E+00
      39.500  0.6390336E+14  0.1761607E+00
      41.500  0.6391494E+14  0.1761926E+00
      43.500  0.6393877E+14  0.1762583E+00
      45.500  0.6396463E+14  0.1763296E+00
      47.500  0.6396902E+14  0.1763417E+00
      49.500  0.6391542E+14  0.1761939E+00
      51.500  0.6382419E+14  0.1759425E+00
      53.500  0.6372860E+14  0.1756789E+00
      55.500  0.6365079E+14  0.1754645E+00
      57.500  0.6359430E+14  0.1753087E+00
      59.500  0.6355616E+14  0.1752036E+00
      61.500  0.6353615E+14  0.1751484E+00
      63.500  0.6353589E+14  0.1751477E+00
      65.500  0.6356183E+14  0.1752192E+00
      67.500  0.6360106E+14  0.1753274E+00
      69.500  0.6364935E+14  0.1754605E+00
      71.500  0.6370552E+14  0.1756153E+00
      73.500  0.6378725E+14  0.1758406E+00
      75.500  0.6387442E+14  0.1760809E+00
      77.500  0.6395829E+14  0.1763121E+00
      79.500  0.6403892E+14  0.1765344E+00
      81.500  0.6411603E+14  0.1767470E+00
      83.500  0.6417656E+14  0.1769138E+00
      85.500  0.6423639E+14  0.1770788E+00
      87.500  0.6430642E+14  0.1772718E+00
      89.500  0.6437465E+14  0.1774599E+00
      91.500  0.6444293E+14  0.1776481E+00
      93.500  0.6451146E+14  0.1778370E+00
      95.500  0.6457224E+14  0.1780046E+00
      97.500  0.6463234E+14  0.1781703E+00
      99.500  0.6469063E+14  0.1783310E+00
     104.500  0.6484756E+14  0.1787636E+00
     109.500  0.6499491E+14  0.1791697E+00
     114.500  0.6512744E+14  0.1795351E+00
     119.500  0.6523531E+14  0.1798325E+00
     124.500  0.6534940E+14  0.1801470E+00
     129.500  0.6545609E+14  0.1804411E+00
     134.500  0.6556998E+14  0.1807550E+00
     139.500  0.6567828E+14  0.1810536E+00
     144.500  0.6578063E+14  0.1813357E+00
     149.500  0.6587191E+14  0.1815874E+00
     154.500  0.6595500E+14  0.1818164E+00
     159.500  0.6602957E+14  0.1820220E+00
     164.500  0.6609161E+14  0.1821930E+00
     169.500  0.6614524E+14  0.1823408E+00
     174.500  0.6620051E+14  0.1824932E+00
     179.500  0.6624673E+14  0.1826206E+00
     184.500  0.6628331E+14  0.1827215E+00
     189.500  0.6631172E+14  0.1827998E+00
     194.500  0.6633515E+14  0.1828644E+00
     199.500  0.6636563E+14  0.1829484E+00
     204.500  0.6638082E+14  0.1829902E+00
     209.500  0.6640033E+14  0.1830440E+00
     214.500  0.6641025E+14  0.1830714E+00
     219.500  0.6641378E+14  0.1830811E+00
     224.500  0.6641555E+14  0.1830860E+00
     229.500  0.6641033E+14  0.1830716E+00
     234.500  0.6640156E+14  0.1830474E+00
     239.500  0.6638203E+14  0.1829936E+00
     244.500  0.6636689E+14  0.1829518E+00
     249.500  0.6634203E+14  0.1828833E+00
     254.500  0.6631488E+14  0.1828085E+00
     259.500  0.6628228E+14  0.1827186E+00
     264.500  0.6625707E+14  0.1826491E+00
     269.500  0.6622127E+14  0.1825504E+00
     274.500  0.6619144E+14  0.1824682E+00
     279.500  0.6615944E+14  0.1823800E+00
     284.500  0.6612868E+14  0.1822952E+00
     289.500  0.6609753E+14  0.1822093E+00
     294.500  0.6606684E+14  0.1821247E+00
     299.500  0.6602781E+14  0.1820171E+00
     304.500  0.6599073E+14  0.1819149E+00
     309.500  0.6595045E+14  0.1818039E+00
     314.500  0.6591727E+14  0.1817124E+00
     319.500  0.6588430E+14  0.1816215E+00
     324.500  0.6584568E+14  0.1815151E+00
     329.500  0.6580439E+14  0.1814012E+00
     334.500  0.6576580E+14  0.1812948E+00
     339.500  0.6572967E+14  0.1811953E+00
     344.500  0.6568517E+14  0.1810726E+00
     349.500  0.6565024E+14  0.1809763E+00
     354.500  0.6560709E+14  0.1808573E+00
     359.500  0.6554898E+14  0.1806971E+00
     364.500  0.6550536E+14  0.1805769E+00
     369.500  0.6545689E+14  0.1804433E+00
     374.500  0.6541085E+14  0.1803164E+00
     379.500  0.6536376E+14  0.1801865E+00
     384.500  0.6532399E+14  0.1800769E+00
     389.500  0.6527870E+14  0.1799521E+00
     394.500  0.6524216E+14  0.1798513E+00
     399.500  0.6519220E+14  0.1797136E+00
     404.500  0.6513912E+14  0.1795673E+00
     409.500  0.6508810E+14  0.1794266E+00
     414.500  0.6502676E+14  0.1792576E+00
     419.500  0.6496464E+14  0.1790863E+00
     424.500  0.6491301E+14  0.1789440E+00
     429.500  0.6486604E+14  0.1788145E+00
     434.500  0.6481623E+14  0.1786772E+00
     439.500  0.6476763E+14  0.1785432E+00
     444.500  0.6472158E+14  0.1784163E+00
     449.500  0.6467920E+14  0.1782994E+00
     454.500  0.6463754E+14  0.1781846E+00
     459.500  0.6459069E+14  0.1780554E+00
     464.500  0.6454376E+14  0.1779261E+00
     469.500  0.6450006E+14  0.1778056E+00
     474.500  0.6445706E+14  0.1776871E+00
     479.500  0.6441067E+14  0.1775592E+00
     484.500  0.6436871E+14  0.1774435E+00
     489.500  0.6432730E+14  0.1773294E+00
     494.500  0.6428932E+14  0.1772247E+00
     499.500  0.6424508E+14  0.1771027E+00
     504.500  0.6420206E+14  0.1769841E+00
     509.500  0.6416107E+14  0.1768711E+00
     514.500  0.6411695E+14  0.1767495E+00
     519.500  0.6407739E+14  0.1766404E+00
     524.500  0.6403423E+14  0.1765215E+00
     529.500  0.6399368E+14  0.1764097E+00
     534.500  0.6395184E+14  0.1762944E+00
     539.500  0.6391200E+14  0.1761845E+00
     544.500  0.6386540E+14  0.1760561E+00
     549.500  0.6380967E+14  0.1759024E+00
     554.500  0.6376374E+14  0.1757758E+00
     559.500  0.6372195E+14  0.1756606E+00
     564.500  0.6367173E+14  0.1755222E+00
     569.500  0.6362207E+14  0.1753853E+00
     574.500  0.6357671E+14  0.1752603E+00
     579.500  0.6352874E+14  0.1751280E+00
     584.500  0.6347964E+14  0.1749927E+00
     589.500  0.6343471E+14  0.1748688E+00
     594.500  0.6338977E+14  0.1747449E+00
     599.500  0.6334158E+14  0.1746121E+00
     604.500  0.6329518E+14  0.1744842E+00
     609.500  0.6325407E+14  0.1743708E+00
     614.500  0.6320735E+14  0.1742420E+00
     619.500  0.6316290E+14  0.1741195E+00
     624.500  0.6311612E+14  0.1739905E+00
     629.500  0.6306757E+14  0.1738567E+00
     634.500  0.6302714E+14  0.1737452E+00
     639.500  0.6297723E+14  0.1736077E+00
     644.500  0.6293221E+14  0.1734836E+00
     649.500  0.6287103E+14  0.1733149E+00
     654.500  0.6282036E+14  0.1731752E+00
     659.500  0.6276292E+14  0.1730169E+00
     664.500  0.6269990E+14  0.1728432E+00
     669.500  0.6264499E+14  0.1726918E+00
     674.500  0.6258935E+14  0.1725384E+00
     679.500  0.6250656E+14  0.1723102E+00
     684.500  0.6244738E+14  0.1721471E+00
     689.500  0.6238835E+14  0.1719843E+00
     694.500  0.6232831E+14  0.1718188E+00
     699.500  0.6227026E+14  0.1716588E+00
     704.500  0.6221010E+14  0.1714929E+00
     709.500  0.6214224E+14  0.1713059E+00
     714.500  0.6208863E+14  0.1711581E+00
     719.500  0.6202841E+14  0.1709921E+00
     724.500  0.6195294E+14  0.1707840E+00
     729.500  0.6188541E+14  0.1705979E+00
     734.500  0.6180812E+14  0.1703848E+00
     739.500  0.6172366E+14  0.1701520E+00
     744.500  0.6164276E+14  0.1699290E+00
     749.500  0.6154900E+14  0.1696705E+00
     754.500  0.6146666E+14  0.1694435E+00
     759.500  0.6137922E+14  0.1692025E+00
     764.500  0.6128081E+14  0.1689312E+00
     769.500  0.6119894E+14  0.1687055E+00
     774.500  0.6109899E+14  0.1684300E+00
     779.500  0.6100843E+14  0.1681803E+00
     784.500  0.6092238E+14  0.1679431E+00
     789.500  0.6083731E+14  0.1677086E+00
     794.500  0.6075263E+14  0.1674752E+00
     799.500  0.6068007E+14  0.1672751E+00
     804.500  0.6060260E+14  0.1670616E+00
     809.500  0.6053232E+14  0.1668679E+00
     814.500  0.6044022E+14  0.1666140E+00
     819.500  0.6037175E+14  0.1664252E+00
     824.500  0.6029749E+14  0.1662205E+00
     829.500  0.6022810E+14  0.1660292E+00
     834.500  0.6014833E+14  0.1658093E+00
     839.500  0.6008930E+14  0.1656466E+00
     844.500  0.6002421E+14  0.1654672E+00
     849.500  0.5995465E+14  0.1652754E+00
     854.500  0.5989001E+14  0.1650972E+00
     859.500  0.5982926E+14  0.1649297E+00
     864.500  0.5976476E+14  0.1647519E+00
     869.500  0.5970728E+14  0.1645935E+00
     874.500  0.5964762E+14  0.1644290E+00
     879.500  0.5959830E+14  0.1642931E+00
     884.500  0.5953742E+14  0.1641252E+00
     889.500  0.5947626E+14  0.1639566E+00
     894.500  0.5940495E+14  0.1637601E+00
     899.500  0.5934443E+14  0.1635932E+00
     904.500  0.5929035E+14  0.1634441E+00
     909.500  0.5924690E+14  0.1633244E+00
     914.500  0.5920182E+14  0.1632001E+00
     919.500  0.5916572E+14  0.1631006E+00
     924.500  0.5912153E+14  0.1629788E+00
     929.500  0.5908146E+14  0.1628683E+00
     934.500  0.5905028E+14  0.1627823E+00
     939.500  0.5900672E+14  0.1626623E+00
     944.500  0.5897474E+14  0.1625741E+00
     949.500  0.5893628E+14  0.1624681E+00
     954.500  0.5890580E+14  0.1623841E+00
     959.500  0.5887796E+14  0.1623073E+00
     964.500  0.5884097E+14  0.1622054E+00
     969.500  0.5881041E+14  0.1621211E+00
     974.500  0.5878594E+14  0.1620537E+00
     979.500  0.5875531E+14  0.1619692E+00
     984.500  0.5871944E+14  0.1618703E+00
     989.500  0.5868787E+14  0.1617833E+00
     994.500  0.5866816E+14  0.1617290E+00
     999.500  0.5863858E+14  0.1616474E+00
    1019.500  0.5852695E+14  0.1613397E+00
    1039.500  0.5842470E+14  0.1610578E+00
    1059.500  0.5833710E+14  0.1608164E+00
    1079.500  0.5826681E+14  0.1606226E+00
    1099.500  0.5820392E+14  0.1604492E+00
    1119.500  0.5815180E+14  0.1603055E+00
    1139.500  0.5809125E+14  0.1601386E+00
    1159.500  0.5803460E+14  0.1599825E+00
    1179.500  0.5797705E+14  0.1598238E+00
    1199.500  0.5792527E+14  0.1596811E+00
    1219.500  0.5788886E+14  0.1595807E+00
    1239.500  0.5785957E+14  0.1594999E+00
    1259.500  0.5782545E+14  0.1594059E+00
    1279.500  0.5777675E+14  0.1592716E+00
    1299.500  0.5773784E+14  0.1591644E+00
    1319.500  0.5770460E+14  0.1590727E+00
    1339.500  0.5767955E+14  0.1590037E+00
    1359.500  0.5765823E+14  0.1589449E+00
    1379.500  0.5762920E+14  0.1588649E+00
    1399.500  0.5759465E+14  0.1587697E+00
    1419.500  0.5756168E+14  0.1586788E+00
    1439.500  0.5753975E+14  0.1586183E+00
    1459.500  0.5752690E+14  0.1585829E+00
    1479.500  0.5750678E+14  0.1585274E+00
    1499.500  0.5747520E+14  0.1584404E+00
    1519.500  0.5745392E+14  0.1583817E+00
    1539.500  0.5742259E+14  0.1582954E+00
    1559.500  0.5741037E+14  0.1582616E+00
    1579.500  0.5740111E+14  0.1582361E+00
    1599.500  0.5738653E+14  0.1581959E+00
    1619.500  0.5735325E+14  0.1581042E+00
    1639.500  0.5732172E+14  0.1580173E+00
    1659.500  0.5730213E+14  0.1579633E+00
    1679.500  0.5729323E+14  0.1579387E+00
    1699.500  0.5727342E+14  0.1578841E+00
    1719.500  0.5724995E+14  0.1578194E+00
    1739.500  0.5721957E+14  0.1577357E+00
    1759.500  0.5719445E+14  0.1576664E+00
    1779.500  0.5717171E+14  0.1576037E+00
    1799.500  0.5716604E+14  0.1575881E+00
    1819.500  0.5715541E+14  0.1575588E+00
    1839.500  0.5712815E+14  0.1574837E+00
    1859.500  0.5710313E+14  0.1574147E+00
    1879.500  0.5708016E+14  0.1573514E+00
    1899.500  0.5706494E+14  0.1573094E+00
    1919.500  0.5705460E+14  0.1572809E+00
    1939.500  0.5703782E+14  0.1572347E+00
    1959.500  0.5701351E+14  0.1571676E+00
    1979.500  0.5698748E+14  0.1570959E+00
    1999.500  0.5697502E+14  0.1570615E+00
    2049.500  0.5694883E+14  0.1569893E+00
    2099.500  0.5688700E+14  0.1568189E+00
    2149.500  0.5685895E+14  0.1567416E+00
    2199.500  0.5681099E+14  0.1566094E+00
    2249.500  0.5678442E+14  0.1565361E+00
    2299.500  0.5673954E+14  0.1564124E+00
    2349.500  0.5670303E+14  0.1563118E+00
    2399.500  0.5668032E+14  0.1562491E+00
    2449.500  0.5663369E+14  0.1561206E+00
    2499.500  0.5663475E+14  0.1561235E+00
    2549.500  0.5659078E+14  0.1560023E+00
    2599.500  0.5658735E+14  0.1559928E+00
    2649.500  0.5655621E+14  0.1559070E+00
    2699.500  0.5654006E+14  0.1558625E+00
    2749.500  0.5652592E+14  0.1558235E+00
    2799.500  0.5650867E+14  0.1557760E+00
    2849.500  0.5650491E+14  0.1557656E+00
    2899.500  0.5647177E+14  0.1556742E+00
    2949.500  0.5647014E+14  0.1556697E+00
    2999.500  0.5644721E+14  0.1556065E+00
    3049.500  0.5643969E+14  0.1555858E+00
    3099.500  0.5643140E+14  0.1555629E+00
    3149.500  0.5641931E+14  0.1555296E+00
    3199.500  0.5641913E+14  0.1555291E+00
    3249.500  0.5641278E+14  0.1555116E+00
    3299.500  0.5641815E+14  0.1555264E+00
    3349.500  0.5639807E+14  0.1554711E+00
    3399.500  0.5641432E+14  0.1555159E+00
    3449.500  0.5640324E+14  0.1554853E+00
    3499.500  0.5641042E+14  0.1555051E+00
    3549.500  0.5640440E+14  0.1554885E+00
    3599.500  0.5639734E+14  0.1554691E+00
    3649.500  0.5640462E+14  0.1554891E+00
    3699.500  0.5638994E+14  0.1554487E+00
    3749.500  0.5640361E+14  0.1554863E+00
    3799.500  0.5638413E+14  0.1554326E+00
    3849.500  0.5639806E+14  0.1554710E+00
    3899.500  0.5638454E+14  0.1554338E+00
    3949.500  0.5638996E+14  0.1554487E+00
    3999.500  0.5638202E+14  0.1554268E+00
    4049.500  0.5637851E+14  0.1554171E+00
    4099.500  0.5638469E+14  0.1554342E+00
    4149.500  0.5636770E+14  0.1553874E+00
    4199.500  0.5638817E+14  0.1554438E+00
    4249.500  0.5636818E+14  0.1553887E+00
    4299.500  0.5637898E+14  0.1554184E+00
    4349.500  0.5637060E+14  0.1553954E+00
    4399.500  0.5637259E+14  0.1554008E+00
    4449.500  0.5637488E+14  0.1554071E+00
    4499.500  0.5636136E+14  0.1553699E+00
    4549.500  0.5637412E+14  0.1554051E+00
    4599.500  0.5635501E+14  0.1553524E+00
    4649.500  0.5637850E+14  0.1554171E+00
    4699.500  0.5635675E+14  0.1553572E+00
    4749.500  0.5637433E+14  0.1554056E+00
    4799.500  0.5635695E+14  0.1553577E+00
    4849.500  0.5635775E+14  0.1553599E+00
    4899.500  0.5636176E+14  0.1553710E+00
    4949.500  0.5634694E+14  0.1553301E+00
    4999.500  0.5636777E+14  0.1553875E+00
    5049.500  0.5634628E+14  0.1553283E+00
    5099.500  0.5636044E+14  0.1553673E+00
    5149.500  0.5634984E+14  0.1553381E+00
    5199.500  0.5635699E+14  0.1553578E+00
    5249.500  0.5635131E+14  0.1553422E+00
    5299.500  0.5634845E+14  0.1553343E+00
    5349.500  0.5635990E+14  0.1553659E+00
    5399.500  0.5634418E+14  0.1553225E+00
    5449.500  0.5636461E+14  0.1553788E+00
    5499.500  0.5634462E+14  0.1553237E+00
    5549.500  0.5635770E+14  0.1553598E+00
    5599.500  0.5635055E+14  0.1553401E+00
    5649.500  0.5635672E+14  0.1553571E+00
    5699.500  0.5635254E+14  0.1553456E+00
    5749.500  0.5634729E+14  0.1553311E+00
    5799.500  0.5636211E+14  0.1553719E+00
    5849.500  0.5634294E+14  0.1553191E+00
    5899.500  0.5636344E+14  0.1553756E+00
    5949.500  0.5634826E+14  0.1553338E+00
    5999.500  0.5635986E+14  0.1553657E+00
    6049.500  0.5635310E+14  0.1553471E+00
    6099.500  0.5635518E+14  0.1553528E+00
    6149.500  0.5635616E+14  0.1553555E+00
    6199.500  0.5635003E+14  0.1553387E+00
    6249.500  0.5636595E+14  0.1553825E+00
    6299.500  0.5634608E+14  0.1553278E+00
    6349.500  0.5636622E+14  0.1553833E+00
    6399.500  0.5635427E+14  0.1553503E+00
    6449.500  0.5636015E+14  0.1553665E+00
    6499.500  0.5635827E+14  0.1553614E+00
    6549.500  0.5635808E+14  0.1553608E+00
    6599.500  0.5636131E+14  0.1553697E+00
    6649.500  0.5635449E+14  0.1553509E+00
    6699.500  0.5637181E+14  0.1553987E+00
    6749.500  0.5634925E+14  0.1553365E+00
    6799.500  0.5636975E+14  0.1553930E+00
    6849.500  0.5635769E+14  0.1553597E+00
    6899.500  0.5636300E+14  0.1553744E+00
    6949.500  0.5636348E+14  0.1553757E+00
    6999.500  0.5635700E+14  0.1553579E+00
    7049.500  0.5636704E+14  0.1553855E+00
    7099.500  0.5635556E+14  0.1553539E+00
    7149.500  0.5637449E+14  0.1554061E+00
    7199.500  0.5635271E+14  0.1553460E+00
    7249.500  0.5637213E+14  0.1553996E+00
    7299.500  0.5636215E+14  0.1553720E+00
    7349.500  0.5636236E+14  0.1553726E+00
    7399.500  0.5636761E+14  0.1553871E+00
    7449.500  0.5635881E+14  0.1553629E+00
    7499.500  0.5637177E+14  0.1553986E+00
    7549.500  0.5635743E+14  0.1553590E+00
    7599.500  0.5637561E+14  0.1554092E+00
    7649.500  0.5635886E+14  0.1553630E+00
    7699.500  0.5637153E+14  0.1553979E+00
    7749.500  0.5636583E+14  0.1553822E+00
    7799.500  0.5636213E+14  0.1553720E+00
    7849.500  0.5637105E+14  0.1553966E+00
    7899.500  0.5636297E+14  0.1553743E+00
    7949.500  0.5637666E+14  0.1554120E+00
    7999.500  0.5635890E+14  0.1553631E+00
    8049.500  0.5637678E+14  0.1554124E+00
    8099.500  0.5636938E+14  0.1553920E+00
    8149.500  0.5637074E+14  0.1553957E+00
    8199.500  0.5636741E+14  0.1553866E+00
    8249.500  0.5636116E+14  0.1553693E+00
    8299.500  0.5637905E+14  0.1554186E+00
    8349.500  0.5636428E+14  0.1553779E+00
    8399.500  0.5638309E+14  0.1554298E+00
    8449.500  0.5635890E+14  0.1553631E+00
    8499.500  0.5637372E+14  0.1554040E+00
    8549.500  0.5636431E+14  0.1553780E+00
    8599.500  0.5636907E+14  0.1553911E+00
    8649.500  0.5636858E+14  0.1553898E+00
    8699.500  0.5636171E+14  0.1553709E+00
    8749.500  0.5637506E+14  0.1554076E+00
    8799.500  0.5635641E+14  0.1553562E+00
    8849.500  0.5637963E+14  0.1554203E+00
    8899.500  0.5636684E+14  0.1553850E+00
    8949.500  0.5636967E+14  0.1553928E+00
    8999.500  0.5636651E+14  0.1553841E+00
    9049.500  0.5636635E+14  0.1553836E+00
    9099.500  0.5638200E+14  0.1554268E+00
    9149.500  0.5636619E+14  0.1553832E+00
    9199.500  0.5638300E+14  0.1554295E+00
    9249.500  0.5637058E+14  0.1553953E+00
    9299.500  0.5638321E+14  0.1554301E+00
    9349.500  0.5637303E+14  0.1554020E+00
    9399.500  0.5638085E+14  0.1554236E+00
    9449.500  0.5638116E+14  0.1554245E+00
    9499.500  0.5636940E+14  0.1553920E+00
    9549.500  0.5638453E+14  0.1554338E+00
    9599.500  0.5636935E+14  0.1553919E+00
    9649.500  0.5639006E+14  0.1554490E+00
    9699.500  0.5636820E+14  0.1553887E+00
    9749.500  0.5638507E+14  0.1554352E+00
    9799.500  0.5637731E+14  0.1554139E+00
    9849.500  0.5637841E+14  0.1554169E+00
    9899.500  0.5637927E+14  0.1554192E+00
    9949.500  0.5637175E+14  0.1553985E+00
    9999.500  0.5638465E+14  0.1554341E+00
