 % time (yr) / global pCO2_13C flux (mol yr-1) / global pCO2_13C (o/oo) NOTE: is the instantaneous (per unit time) atmospheric forcing flux.
       0.500 -0.7315716E+13     -26.226
       1.500 -0.4623815E+13     -24.223
       2.500 -0.3859187E+13     -21.602
       3.500 -0.3368147E+13     -19.766
       4.500 -0.3033544E+13     -18.255
       5.500 -0.2794794E+13     -16.910
       6.500 -0.2608966E+13     -15.691
       7.500 -0.2444724E+13     -14.560
       8.500 -0.2308792E+13     -13.482
       9.500 -0.2181842E+13     -12.440
      10.500 -0.2093963E+13     -11.453
      11.500 -0.2031891E+13     -10.556
      12.500 -0.1975176E+13      -9.727
      13.500 -0.1919357E+13      -8.972
      14.500 -0.1867737E+13      -8.277
      15.500 -0.1815691E+13      -7.622
      16.500 -0.1757149E+13      -6.982
      17.500 -0.1706327E+13      -6.380
      18.500 -0.1654258E+13      -5.790
      19.500 -0.1603578E+13      -5.220
      21.500 -0.1505985E+13      -4.122
      23.500 -0.1441775E+13      -3.285
      25.500 -0.1392516E+13      -2.587
      27.500 -0.1348740E+13      -1.914
      29.500 -0.1310313E+13      -1.307
      31.500 -0.1288659E+13      -0.901
      33.500 -0.1265330E+13      -0.488
      35.500 -0.1244295E+13      -0.117
      37.500 -0.1224652E+13       0.200
      39.500 -0.1209471E+13       0.423
      41.500 -0.1196658E+13       0.622
      43.500 -0.1184602E+13       0.790
      45.500 -0.1175054E+13       0.902
      47.500 -0.1167519E+13       0.944
      49.500 -0.1159767E+13       0.973
      51.500 -0.1153594E+13       0.980
      53.500 -0.1144912E+13       1.012
      55.500 -0.1145245E+13       0.921
      57.500 -0.1142038E+13       0.880
      59.500 -0.1137051E+13       0.847
      61.500 -0.1131541E+13       0.826
      63.500 -0.1127969E+13       0.788
      65.500 -0.1125093E+13       0.737
      67.500 -0.1119511E+13       0.720
      69.500 -0.1113237E+13       0.718
      71.500 -0.1106905E+13       0.723
      73.500 -0.1106416E+13       0.646
      75.500 -0.1106392E+13       0.554
      77.500 -0.1104070E+13       0.492
      79.500 -0.1097287E+13       0.486
      81.500 -0.1088812E+13       0.508
      83.500 -0.1079817E+13       0.538
      85.500 -0.1073301E+13       0.537
      87.500 -0.1070178E+13       0.479
      89.500 -0.1064823E+13       0.451
      91.500 -0.1058239E+13       0.440
      93.500 -0.1052091E+13       0.432
      95.500 -0.1050244E+13       0.370
      97.500 -0.1045982E+13       0.339
      99.500 -0.1041518E+13       0.310
     104.500 -0.1034379E+13       0.186
     109.500 -0.1019528E+13       0.164
     114.500 -0.1002541E+13       0.187
     119.500 -0.9872668E+12       0.197
     124.500 -0.9743136E+12       0.169
     129.500 -0.9618353E+12       0.110
     134.500 -0.9493046E+12       0.029
     139.500 -0.9366585E+12      -0.043
     144.500 -0.9264926E+12      -0.136
     149.500 -0.9162833E+12      -0.212
     154.500 -0.9064218E+12      -0.296
     159.500 -0.8973436E+12      -0.394
     164.500 -0.8868769E+12      -0.480
     169.500 -0.8761587E+12      -0.545
     174.500 -0.8675294E+12      -0.630
     179.500 -0.8574629E+12      -0.676
     184.500 -0.8460028E+12      -0.687
     189.500 -0.8359669E+12      -0.707
     194.500 -0.8255997E+12      -0.713
     199.500 -0.8167534E+12      -0.743
     204.500 -0.8055839E+12      -0.732
     209.500 -0.7953258E+12      -0.735
     214.500 -0.7841554E+12      -0.715
     219.500 -0.7724997E+12      -0.682
     224.500 -0.7625355E+12      -0.671
     229.500 -0.7523967E+12      -0.649
     234.500 -0.7426230E+12      -0.626
     239.500 -0.7322577E+12      -0.590
     244.500 -0.7222273E+12      -0.552
     249.500 -0.7130115E+12      -0.525
     254.500 -0.7044453E+12      -0.503
     259.500 -0.6935498E+12      -0.432
     264.500 -0.6839741E+12      -0.388
     269.500 -0.6720941E+12      -0.268
     274.500 -0.6641318E+12      -0.256
     279.500 -0.6544907E+12      -0.177
     284.500 -0.6447030E+12      -0.104
     289.500 -0.6361964E+12      -0.058
     294.500 -0.6276358E+12      -0.004
     299.500 -0.6190717E+12       0.053
     304.500 -0.6104977E+12       0.118
     309.500 -0.6026507E+12       0.165
     314.500 -0.5956376E+12       0.189
     319.500 -0.5874768E+12       0.250
     324.500 -0.5800458E+12       0.303
     329.500 -0.5722109E+12       0.372
     334.500 -0.5649791E+12       0.425
     339.500 -0.5565840E+12       0.520
     344.500 -0.5487753E+12       0.610
     349.500 -0.5415367E+12       0.675
     354.500 -0.5328738E+12       0.787
     359.500 -0.5256317E+12       0.887
     364.500 -0.5198868E+12       0.930
     369.500 -0.5133450E+12       0.992
     374.500 -0.5061284E+12       1.089
     379.500 -0.4984176E+12       1.204
     384.500 -0.4920659E+12       1.277
     389.500 -0.4857275E+12       1.360
     394.500 -0.4794863E+12       1.438
     399.500 -0.4747390E+12       1.447
     404.500 -0.4682656E+12       1.541
     409.500 -0.4619832E+12       1.638
     414.500 -0.4558506E+12       1.749
     419.500 -0.4491078E+12       1.888
     424.500 -0.4419338E+12       2.061
     429.500 -0.4356687E+12       2.206
     434.500 -0.4292556E+12       2.360
     439.500 -0.4233483E+12       2.491
     444.500 -0.4167321E+12       2.665
     449.500 -0.4115860E+12       2.766
     454.500 -0.4056387E+12       2.910
     459.500 -0.3999453E+12       3.062
     464.500 -0.3949016E+12       3.178
     469.500 -0.3905985E+12       3.246
     474.500 -0.3863676E+12       3.306
     479.500 -0.3803402E+12       3.480
     484.500 -0.3757298E+12       3.576
     489.500 -0.3710193E+12       3.684
     494.500 -0.3667099E+12       3.772
     499.500 -0.3605923E+12       4.006
     504.500 -0.3556429E+12       4.151
     509.500 -0.3509484E+12       4.281
     514.500 -0.3452450E+12       4.473
     519.500 -0.3403702E+12       4.633
     524.500 -0.3352076E+12       4.814
     529.500 -0.3301564E+12       4.986
     534.500 -0.3256584E+12       5.123
     539.500 -0.3238007E+12       5.088
     544.500 -0.3172836E+12       5.435
     549.500 -0.3104261E+12       5.867
     554.500 -0.3068378E+12       5.987
     559.500 -0.3033532E+12       6.107
     564.500 -0.2974515E+12       6.445
     569.500 -0.2933976E+12       6.600
     574.500 -0.2897310E+12       6.712
     579.500 -0.2855738E+12       6.875
     584.500 -0.2811971E+12       7.082
     589.500 -0.2787330E+12       7.069
     594.500 -0.2745203E+12       7.253
     599.500 -0.2697779E+12       7.539
     604.500 -0.2664864E+12       7.668
     609.500 -0.2628600E+12       7.824
     614.500 -0.2574805E+12       8.221
     619.500 -0.2547491E+12       8.322
     624.500 -0.2503059E+12       8.603
     629.500 -0.2458535E+12       8.834
     634.500 -0.2423701E+12       9.000
     639.500 -0.2395144E+12       9.037
     644.500 -0.2389294E+12       8.779
     649.500 -0.2318540E+12       9.420
     654.500 -0.2273832E+12       9.666
     659.500 -0.2250189E+12       9.585
     664.500 -0.2218407E+12       9.574
     669.500 -0.2152006E+12      10.104
     674.500 -0.2103243E+12      10.511
     679.500 -0.2069228E+12      10.597
     684.500 -0.2019937E+12      10.985
     689.500 -0.1991174E+12      11.122
     694.500 -0.1967853E+12      11.204
     699.500 -0.1940071E+12      11.424
     704.500 -0.1904827E+12      11.721
     709.500 -0.1855324E+12      12.400
     714.500 -0.1826125E+12      12.692
     719.500 -0.1807993E+12      12.783
     724.500 -0.1773519E+12      13.163
     729.500 -0.1751041E+12      13.252
     734.500 -0.1714985E+12      13.445
     739.500 -0.1680289E+12      13.540
     744.500 -0.1619956E+12      14.193
     749.500 -0.1573801E+12      14.588
     754.500 -0.1500551E+12      15.682
     759.500 -0.1439266E+12      16.861
     764.500 -0.1392058E+12      17.973
     769.500 -0.1360323E+12      18.504
     774.500 -0.1331778E+12      19.064
     779.500 -0.1291245E+12      19.883
     784.500 -0.1262587E+12      20.609
     789.500 -0.1241387E+12      21.311
     794.500 -0.1228928E+12      21.750
     799.500 -0.1216028E+12      22.152
     804.500 -0.1193628E+12      22.934
     809.500 -0.1188350E+12      23.069
     814.500 -0.1170751E+12      23.782
     819.500 -0.1137329E+12      25.085
     824.500 -0.1121567E+12      25.791
     829.500 -0.1112936E+12      26.207
     834.500 -0.1099090E+12      26.755
     839.500 -0.1096525E+12      26.864
     844.500 -0.1086167E+12      27.251
     849.500 -0.1076091E+12      27.535
     854.500 -0.1059507E+12      28.203
     859.500 -0.1046881E+12      28.788
     864.500 -0.1041012E+12      29.059
     869.500 -0.1030223E+12      29.549
     874.500 -0.1023020E+12      30.004
     879.500 -0.1015899E+12      30.321
     884.500 -0.1009944E+12      30.612
     889.500 -0.9842743E+11      31.891
     894.500 -0.9605291E+11      32.949
     899.500 -0.9586307E+11      33.038
     904.500 -0.9619434E+11      32.882
     909.500 -0.9632521E+11      32.745
     914.500 -0.9573338E+11      33.032
     919.500 -0.9559416E+11      33.054
     924.500 -0.9526927E+11      33.168
     929.500 -0.9480624E+11      33.350
     934.500 -0.9460859E+11      33.400
     939.500 -0.9374937E+11      33.783
     944.500 -0.9352104E+11      33.816
     949.500 -0.9297901E+11      34.029
     954.500 -0.9228514E+11      34.341
     959.500 -0.9157609E+11      34.679
     964.500 -0.9155882E+11      34.616
     969.500 -0.9129593E+11      34.679
     974.500 -0.9085095E+11      34.834
     979.500 -0.9043198E+11      34.943
     984.500 -0.8912730E+11      35.691
     989.500 -0.8897650E+11      35.674
     994.500 -0.8862526E+11      35.743
     999.500 -0.8824725E+11      35.812
    1019.500 -0.8650582E+11      36.500
    1039.500 -0.8555632E+11      36.691
    1059.500 -0.8381821E+11      37.277
    1079.500 -0.8286001E+11      37.307
    1099.500 -0.8083931E+11      37.858
    1119.500 -0.7931385E+11      38.178
    1139.500 -0.7778162E+11      38.668
    1159.500 -0.7670129E+11      38.762
    1179.500 -0.7630004E+11      38.528
    1199.500 -0.7476775E+11      38.896
    1219.500 -0.7386030E+11      38.851
    1239.500 -0.7260817E+11      38.959
    1259.500 -0.7186839E+11      38.789
    1279.500 -0.7018335E+11      39.623
    1299.500 -0.7001132E+11      39.087
    1319.500 -0.6883074E+11      39.229
    1339.500 -0.6776374E+11      39.344
    1359.500 -0.6710849E+11      39.043
    1379.500 -0.6640273E+11      38.950
    1399.500 -0.6580236E+11      38.878
    1419.500 -0.6486358E+11      39.021
    1439.500 -0.6406426E+11      38.966
    1459.500 -0.6281674E+11      39.207
    1479.500 -0.6248652E+11      38.741
    1499.500 -0.6174597E+11      38.841
    1519.500 -0.6217612E+11      37.847
    1539.500 -0.6063520E+11      38.678
    1559.500 -0.5942647E+11      39.117
    1579.500 -0.5867465E+11      38.988
    1599.500 -0.5795359E+11      38.936
    1619.500 -0.5729395E+11      38.994
    1639.500 -0.5711186E+11      38.674
    1659.500 -0.5523271E+11      39.835
    1679.500 -0.5442179E+11      39.977
    1699.500 -0.5384160E+11      39.870
    1719.500 -0.5319111E+11      40.024
    1739.500 -0.5289259E+11      39.831
    1759.500 -0.5186191E+11      40.365
    1779.500 -0.5096907E+11      40.644
    1799.500 -0.5041717E+11      40.413
    1819.500 -0.4982036E+11      40.324
    1839.500 -0.4893503E+11      40.942
    1859.500 -0.4870479E+11      40.628
    1879.500 -0.4742927E+11      41.554
    1899.500 -0.4698170E+11      41.391
    1919.500 -0.4578317E+11      42.096
    1939.500 -0.4519851E+11      42.173
    1959.500 -0.4480804E+11      42.147
    1979.500 -0.4475104E+11      41.818
    1999.500 -0.4325182E+11      43.128
    2049.500 -0.4195052E+11      42.874
    2099.500 -0.4047037E+11      43.890
    2149.500 -0.3915877E+11      43.824
    2199.500 -0.3819367E+11      44.175
    2249.500 -0.3618621E+11      45.573
    2299.500 -0.3579191E+11      44.743
    2349.500 -0.3439686E+11      45.689
    2399.500 -0.3318361E+11      46.077
    2449.500 -0.3214000E+11      46.646
    2499.500 -0.3143682E+11      46.004
    2549.500 -0.3139492E+11      45.002
    2599.500 -0.3029932E+11      45.005
    2649.500 -0.2977435E+11      45.011
    2699.500 -0.2844043E+11      46.032
    2749.500 -0.2782763E+11      45.655
    2799.500 -0.2721070E+11      45.535
    2849.500 -0.2574238E+11      46.903
    2899.500 -0.2518414E+11      47.282
    2949.500 -0.2396982E+11      48.105
    2999.500 -0.2404047E+11      46.777
    3049.500 -0.2323311E+11      46.820
    3099.500 -0.2318523E+11      45.541
    3149.500 -0.2243024E+11      45.929
    3199.500 -0.2150358E+11      46.551
    3249.500 -0.2088191E+11      46.962
    3299.500 -0.1985214E+11      47.601
    3349.500 -0.2014939E+11      45.654
    3399.500 -0.1894161E+11      46.776
    3449.500 -0.1890839E+11      45.776
    3499.500 -0.1753185E+11      48.073
    3549.500 -0.1745220E+11      46.728
    3599.500 -0.1666358E+11      48.053
    3649.500 -0.1581194E+11      48.996
    3699.500 -0.1556737E+11      48.896
    3749.500 -0.1457843E+11      50.170
    3799.500 -0.1437442E+11      50.262
    3849.500 -0.1326799E+11      52.794
    3899.500 -0.1356462E+11      50.231
    3949.500 -0.1230741E+11      54.149
    3999.500 -0.1218721E+11      52.895
    4049.500 -0.1167290E+11      54.422
    4099.500 -0.1087406E+11      56.527
    4149.500 -0.1097245E+11      54.870
    4199.500 -0.1014650E+11      56.812
    4249.500 -0.1030004E+11      55.242
    4299.500 -0.9291656E+10      59.157
    4349.500 -0.9496231E+10      56.665
    4399.500 -0.8571160E+10      61.554
    4449.500 -0.8521564E+10      59.533
    4499.500 -0.8357199E+10      59.633
    4549.500 -0.7594054E+10      63.279
    4599.500 -0.7845558E+10      60.510
    4649.500 -0.7099887E+10      63.781
    4699.500 -0.7710726E+10      56.871
    4749.500 -0.6184458E+10      70.984
    4799.500 -0.6595769E+10      64.461
    4849.500 -0.5801312E+10      72.578
    4899.500 -0.5757788E+10      69.824
    4949.500 -0.5310887E+10      76.669
    4999.500 -0.5044894E+10      75.240
    5049.500 -0.5266378E+10      72.306
    5099.500 -0.4757661E+10      75.657
    5149.500 -0.5242665E+10      66.904
    5199.500 -0.4220282E+10      82.489
    5249.500 -0.4763368E+10      68.990
    5299.500 -0.4152527E+10      80.150
    5349.500 -0.4012044E+10      78.052
    5399.500 -0.4160827E+10      74.538
    5449.500 -0.3568328E+10      82.410
    5499.500 -0.3695195E+10      80.819
    5549.500 -0.3387275E+10      82.506
    5599.500 -0.3654202E+10      74.833
    5649.500 -0.3008601E+10      89.363
    5699.500 -0.3102678E+10      83.878
    5749.500 -0.2790431E+10      94.600
    5799.500 -0.2686056E+10      90.838
    5849.500 -0.2894175E+10      84.524
    5899.500 -0.2267446E+10     102.779
    5949.500 -0.2770736E+10      82.963
    5999.500 -0.2331268E+10      92.886
    6049.500 -0.2591785E+10      82.315
    6099.500 -0.2063571E+10     103.224
    6149.500 -0.2096477E+10      96.445
    6199.500 -0.1634889E+10     131.721
    6249.500 -0.1839144E+10     101.062
    6299.500 -0.2183205E+10      86.672
    6349.500 -0.1538161E+10     116.451
    6399.500 -0.2286616E+10      74.446
    6449.500 -0.1387078E+10     126.275
    6499.500 -0.1826504E+10      88.717
    6549.500 -0.1759355E+10      89.935
    6599.500 -0.1245219E+10     129.391
    6649.500 -0.1486151E+10     105.217
    6699.500 -0.1306534E+10     107.258
    6749.500 -0.1336375E+10     115.117
    6799.500 -0.1022343E+10     133.986
    6849.500 -0.1685144E+10      77.883
    6899.500 -0.8220953E+09     170.171
    6949.500 -0.1303776E+10      94.031
    6999.500 -0.9879837E+09     135.703
    7049.500 -0.8835776E+09     136.278
    7099.500 -0.9455553E+09     132.751
    7149.500 -0.6911248E+09     161.628
    7199.500 -0.8527507E+09     145.368
    7249.500 -0.6398596E+09     168.892
    7299.500 -0.1083650E+10      95.127
    7349.500 -0.4948061E+09     234.486
    7399.500 -0.5549493E+09     188.153
    7449.500 -0.3868501E+09     329.002
    7499.500 -0.4787406E+09     199.267
    7549.500 -0.7866142E+09     122.964
    7599.500 -0.4887828E+09     173.746
    7649.500 -0.8647891E+09     101.550
    7699.500 -0.2427274E+09     435.897
    7749.500 -0.8807041E+09      87.096
    7799.500 -0.4377004E+09     200.291
    7849.500 -0.1790523E+09     614.006
    7899.500 -0.7118112E+09     103.190
    7949.500 -0.5168196E+09     119.949
    7999.500 -0.4456938E+09     184.778
    8049.500 -0.2328635E+09     308.372
    8099.500 -0.8682313E+09      70.739
    8149.500 -0.2237820E+09     321.990
    8199.500 -0.7250929E+09      75.265
    8249.500 -0.3477257E+09     205.520
    8299.500 -0.2892995E+09     192.787
    8349.500 -0.4323377E+09     145.509
    8399.500 -0.7061985E+08    1453.381
    8449.500 -0.1546514E+09     540.997
    8499.500 -0.2521263E+09     188.452
    8549.500 -0.4770717E+09     109.405
    8599.500 -0.9061905E+07   -1242.909
    8649.500 -0.3527843E+09     127.700
    8699.500 -0.1393215E+08   -1371.037
    8749.500 -0.1631662E+09     278.681
    8799.500 -0.5737909E+09      78.544
    8849.500 -0.2100798E+08   -2795.412
    8899.500 -0.6334569E+09      63.070
    8949.500 -0.1973679E+08   -2209.483
    8999.500 -0.8490958E+09      37.208
    9049.500 -0.2469288E+09     173.268
    9099.500 -0.2749232E+09     120.088
    9149.500 -0.6016895E+09      54.812
    9199.500 -0.2924693E+09      77.127
    9249.500 -0.2428323E+09     175.534
    9299.500 -0.1192900E+09     220.561
    9349.500 -0.7424497E+09      34.111
    9399.500 -0.6365434E+08     550.070
    9449.500 -0.2851317E+09      86.673
    9499.500 -0.2258346E+09     144.640
    9549.500  0.1154901E+09    -151.727
    9599.500 -0.3424817E+09      83.520
    9649.500 -0.5846025E+08     312.095
    9699.500 -0.1588213E+09     223.206
    9749.500 -0.5200788E+08     431.106
    9799.500 -0.2962516E+09      77.538
    9849.500  0.1589772E+09    -115.951
    9899.500 -0.1042101E+09     198.288
    9949.500 -0.4145895E+08    1526.603
    9999.500  0.1547768E+09     -88.981
