 % time (yr) / global CaCO3_13C flux (mol yr-1) / global CaCO3_13C delta (o/oo)
       0.500  0.1234518E+13         1.730
       1.500  0.1228324E+13         2.400
       2.500  0.1131272E+13         2.586
       3.500  0.1058400E+13         2.673
       4.500  0.1004477E+13         2.721
       5.500  0.9632656E+12         2.751
       6.500  0.9300297E+12         2.771
       7.500  0.9006473E+12         2.787
       8.500  0.8747288E+12         2.800
       9.500  0.8522827E+12         2.809
      10.500  0.8327564E+12         2.815
      11.500  0.8160153E+12         2.819
      12.500  0.8013384E+12         2.821
      13.500  0.7885057E+12         2.823
      14.500  0.7769231E+12         2.825
      15.500  0.7667323E+12         2.826
      16.500  0.7578314E+12         2.828
      17.500  0.7499796E+12         2.830
      18.500  0.7433654E+12         2.831
      19.500  0.7374371E+12         2.833
      21.500  0.7280848E+12         2.838
      23.500  0.7217281E+12         2.842
      25.500  0.7173417E+12         2.846
      27.500  0.7147677E+12         2.849
      29.500  0.7129551E+12         2.854
      31.500  0.7123811E+12         2.856
      33.500  0.7116956E+12         2.859
      35.500  0.7108348E+12         2.861
      37.500  0.7101746E+12         2.863
      39.500  0.7099196E+12         2.863
      41.500  0.7100479E+12         2.862
      43.500  0.7103117E+12         2.861
      45.500  0.7105976E+12         2.859
      47.500  0.7106442E+12         2.856
      49.500  0.7100462E+12         2.852
      51.500  0.7090300E+12         2.848
      53.500  0.7079650E+12         2.844
      55.500  0.7070975E+12         2.840
      57.500  0.7064671E+12         2.836
      59.500  0.7060407E+12         2.832
      61.500  0.7058160E+12         2.828
      63.500  0.7058110E+12         2.825
      65.500  0.7060971E+12         2.822
      67.500  0.7065312E+12         2.820
      69.500  0.7070661E+12         2.818
      71.500  0.7076887E+12         2.816
      73.500  0.7085953E+12         2.814
      75.500  0.7095622E+12         2.812
      77.500  0.7104927E+12         2.810
      79.500  0.7113873E+12         2.808
      81.500  0.7122431E+12         2.807
      83.500  0.7129147E+12         2.806
      85.500  0.7135784E+12         2.805
      87.500  0.7143552E+12         2.803
      89.500  0.7151122E+12         2.802
      91.500  0.7158697E+12         2.801
      93.500  0.7166301E+12         2.799
      95.500  0.7173044E+12         2.798
      97.500  0.7179711E+12         2.797
      99.500  0.7186178E+12         2.795
     104.500  0.7203589E+12         2.792
     109.500  0.7219939E+12         2.790
     114.500  0.7234645E+12         2.788
     119.500  0.7246614E+12         2.786
     124.500  0.7259272E+12         2.784
     129.500  0.7271109E+12         2.781
     134.500  0.7283745E+12         2.779
     139.500  0.7295762E+12         2.777
     144.500  0.7307118E+12         2.776
     149.500  0.7317244E+12         2.774
     154.500  0.7326461E+12         2.772
     159.500  0.7334730E+12         2.770
     164.500  0.7341608E+12         2.768
     169.500  0.7347553E+12         2.766
     174.500  0.7353681E+12         2.765
     179.500  0.7358802E+12         2.763
     184.500  0.7362858E+12         2.762
     189.500  0.7366005E+12         2.761
     194.500  0.7368600E+12         2.760
     199.500  0.7371977E+12         2.759
     204.500  0.7373658E+12         2.758
     209.500  0.7375818E+12         2.757
     214.500  0.7376915E+12         2.756
     219.500  0.7377302E+12         2.755
     224.500  0.7377493E+12         2.755
     229.500  0.7376909E+12         2.754
     234.500  0.7375930E+12         2.753
     239.500  0.7373757E+12         2.753
     244.500  0.7372069E+12         2.752
     249.500  0.7369304E+12         2.751
     254.500  0.7366283E+12         2.751
     259.500  0.7362659E+12         2.750
     264.500  0.7359855E+12         2.750
     269.500  0.7355877E+12         2.750
     274.500  0.7352561E+12         2.749
     279.500  0.7349006E+12         2.749
     284.500  0.7345587E+12         2.749
     289.500  0.7342125E+12         2.749
     294.500  0.7338713E+12         2.748
     299.500  0.7334376E+12         2.748
     304.500  0.7330256E+12         2.748
     309.500  0.7325779E+12         2.748
     314.500  0.7322092E+12         2.747
     319.500  0.7318428E+12         2.747
     324.500  0.7314136E+12         2.747
     329.500  0.7309549E+12         2.747
     334.500  0.7305260E+12         2.746
     339.500  0.7301246E+12         2.746
     344.500  0.7296303E+12         2.746
     349.500  0.7292420E+12         2.746
     354.500  0.7287628E+12         2.746
     359.500  0.7281173E+12         2.746
     364.500  0.7276326E+12         2.746
     369.500  0.7270942E+12         2.746
     374.500  0.7265827E+12         2.746
     379.500  0.7260596E+12         2.746
     384.500  0.7256178E+12         2.746
     389.500  0.7251146E+12         2.746
     394.500  0.7247086E+12         2.745
     399.500  0.7241537E+12         2.745
     404.500  0.7235641E+12         2.745
     409.500  0.7229975E+12         2.746
     414.500  0.7223164E+12         2.746
     419.500  0.7216266E+12         2.746
     424.500  0.7210532E+12         2.747
     429.500  0.7205315E+12         2.747
     434.500  0.7199783E+12         2.747
     439.500  0.7194385E+12         2.747
     444.500  0.7189270E+12         2.747
     449.500  0.7184563E+12         2.747
     454.500  0.7179935E+12         2.747
     459.500  0.7174731E+12         2.747
     464.500  0.7169519E+12         2.747
     469.500  0.7164664E+12         2.747
     474.500  0.7159887E+12         2.747
     479.500  0.7154734E+12         2.747
     484.500  0.7150073E+12         2.747
     489.500  0.7145473E+12         2.747
     494.500  0.7141253E+12         2.747
     499.500  0.7136340E+12         2.747
     504.500  0.7131561E+12         2.747
     509.500  0.7127007E+12         2.747
     514.500  0.7122108E+12         2.747
     519.500  0.7117713E+12         2.747
     524.500  0.7112919E+12         2.747
     529.500  0.7108415E+12         2.747
     534.500  0.7103768E+12         2.747
     539.500  0.7099340E+12         2.747
     544.500  0.7094166E+12         2.747
     549.500  0.7087977E+12         2.747
     554.500  0.7082875E+12         2.747
     559.500  0.7078232E+12         2.747
     564.500  0.7072655E+12         2.747
     569.500  0.7067137E+12         2.747
     574.500  0.7062099E+12         2.747
     579.500  0.7056770E+12         2.747
     584.500  0.7051317E+12         2.747
     589.500  0.7046324E+12         2.747
     594.500  0.7041332E+12         2.747
     599.500  0.7035979E+12         2.747
     604.500  0.7030825E+12         2.747
     609.500  0.7026258E+12         2.747
     614.500  0.7021068E+12         2.747
     619.500  0.7016129E+12         2.746
     624.500  0.7010932E+12         2.746
     629.500  0.7005540E+12         2.746
     634.500  0.7001048E+12         2.746
     639.500  0.6995505E+12         2.746
     644.500  0.6990503E+12         2.746
     649.500  0.6983711E+12         2.747
     654.500  0.6978084E+12         2.747
     659.500  0.6971705E+12         2.747
     664.500  0.6964707E+12         2.748
     669.500  0.6958610E+12         2.748
     674.500  0.6952431E+12         2.748
     679.500  0.6943240E+12         2.749
     684.500  0.6936669E+12         2.749
     689.500  0.6930112E+12         2.749
     694.500  0.6923445E+12         2.749
     699.500  0.6916997E+12         2.750
     704.500  0.6910316E+12         2.750
     709.500  0.6902781E+12         2.750
     714.500  0.6896827E+12         2.750
     719.500  0.6890140E+12         2.751
     724.500  0.6881759E+12         2.751
     729.500  0.6874259E+12         2.751
     734.500  0.6865677E+12         2.752
     739.500  0.6856299E+12         2.752
     744.500  0.6847319E+12         2.753
     749.500  0.6836911E+12         2.754
     754.500  0.6827771E+12         2.755
     759.500  0.6818065E+12         2.756
     764.500  0.6807141E+12         2.757
     769.500  0.6798051E+12         2.758
     774.500  0.6786957E+12         2.759
     779.500  0.6776902E+12         2.760
     784.500  0.6767349E+12         2.761
     789.500  0.6757905E+12         2.762
     794.500  0.6748503E+12         2.762
     799.500  0.6740446E+12         2.763
     804.500  0.6731844E+12         2.763
     809.500  0.6724041E+12         2.764
     814.500  0.6713818E+12         2.765
     819.500  0.6706215E+12         2.766
     824.500  0.6697971E+12         2.766
     829.500  0.6690266E+12         2.767
     834.500  0.6681409E+12         2.767
     839.500  0.6674854E+12         2.768
     844.500  0.6667627E+12         2.768
     849.500  0.6659902E+12         2.768
     854.500  0.6652725E+12         2.769
     859.500  0.6645979E+12         2.769
     864.500  0.6638817E+12         2.770
     869.500  0.6632433E+12         2.770
     874.500  0.6625809E+12         2.770
     879.500  0.6620330E+12         2.770
     884.500  0.6613570E+12         2.771
     889.500  0.6606780E+12         2.771
     894.500  0.6598862E+12         2.772
     899.500  0.6592141E+12         2.772
     904.500  0.6586136E+12         2.772
     909.500  0.6581309E+12         2.772
     914.500  0.6576301E+12         2.772
     919.500  0.6572290E+12         2.772
     924.500  0.6567384E+12         2.773
     929.500  0.6562933E+12         2.773
     934.500  0.6559467E+12         2.772
     939.500  0.6554631E+12         2.773
     944.500  0.6551078E+12         2.772
     949.500  0.6546806E+12         2.773
     954.500  0.6543421E+12         2.773
     959.500  0.6540327E+12         2.773
     964.500  0.6536220E+12         2.773
     969.500  0.6532825E+12         2.773
     974.500  0.6530105E+12         2.772
     979.500  0.6526702E+12         2.772
     984.500  0.6522719E+12         2.773
     989.500  0.6519211E+12         2.772
     994.500  0.6517019E+12         2.772
     999.500  0.6513734E+12         2.772
    1019.500  0.6501331E+12         2.772
    1039.500  0.6489971E+12         2.771
    1059.500  0.6480236E+12         2.771
    1079.500  0.6472425E+12         2.770
    1099.500  0.6465434E+12         2.770
    1119.500  0.6459641E+12         2.769
    1139.500  0.6452911E+12         2.768
    1159.500  0.6446613E+12         2.767
    1179.500  0.6440216E+12         2.767
    1199.500  0.6434459E+12         2.766
    1219.500  0.6430411E+12         2.765
    1239.500  0.6427152E+12         2.765
    1259.500  0.6423357E+12         2.764
    1279.500  0.6417944E+12         2.763
    1299.500  0.6413616E+12         2.763
    1319.500  0.6409919E+12         2.762
    1339.500  0.6407133E+12         2.761
    1359.500  0.6404760E+12         2.760
    1379.500  0.6401530E+12         2.760
    1399.500  0.6397689E+12         2.759
    1419.500  0.6394022E+12         2.758
    1439.500  0.6391582E+12         2.758
    1459.500  0.6390150E+12         2.757
    1479.500  0.6387911E+12         2.756
    1499.500  0.6384399E+12         2.756
    1519.500  0.6382031E+12         2.755
    1539.500  0.6378548E+12         2.755
    1559.500  0.6377186E+12         2.754
    1579.500  0.6376154E+12         2.753
    1599.500  0.6374531E+12         2.753
    1619.500  0.6370832E+12         2.752
    1639.500  0.6367325E+12         2.752
    1659.500  0.6365146E+12         2.751
    1679.500  0.6364153E+12         2.750
    1699.500  0.6361951E+12         2.750
    1719.500  0.6359340E+12         2.750
    1739.500  0.6355963E+12         2.749
    1759.500  0.6353170E+12         2.749
    1779.500  0.6350641E+12         2.748
    1799.500  0.6350008E+12         2.748
    1819.500  0.6348824E+12         2.747
    1839.500  0.6345794E+12         2.747
    1859.500  0.6343012E+12         2.746
    1879.500  0.6340457E+12         2.746
    1899.500  0.6338764E+12         2.746
    1919.500  0.6337613E+12         2.745
    1939.500  0.6335748E+12         2.745
    1959.500  0.6333044E+12         2.745
    1979.500  0.6330151E+12         2.744
    1999.500  0.6328764E+12         2.744
    2049.500  0.6325848E+12         2.743
    2099.500  0.6318974E+12         2.742
    2149.500  0.6315854E+12         2.741
    2199.500  0.6310521E+12         2.740
    2249.500  0.6307564E+12         2.739
    2299.500  0.6302575E+12         2.739
    2349.500  0.6298514E+12         2.738
    2399.500  0.6295987E+12         2.737
    2449.500  0.6290803E+12         2.736
    2499.500  0.6290914E+12         2.735
    2549.500  0.6286025E+12         2.735
    2599.500  0.6285639E+12         2.734
    2649.500  0.6282176E+12         2.733
    2699.500  0.6280378E+12         2.732
    2749.500  0.6278804E+12         2.732
    2799.500  0.6276882E+12         2.731
    2849.500  0.6276461E+12         2.730
    2899.500  0.6272776E+12         2.730
    2949.500  0.6272591E+12         2.729
    2999.500  0.6270040E+12         2.728
    3049.500  0.6269201E+12         2.728
    3099.500  0.6268276E+12         2.727
    3149.500  0.6266930E+12         2.727
    3199.500  0.6266907E+12         2.726
    3249.500  0.6266196E+12         2.725
    3299.500  0.6266790E+12         2.725
    3349.500  0.6264555E+12         2.724
    3399.500  0.6266357E+12         2.724
    3449.500  0.6265122E+12         2.723
    3499.500  0.6265917E+12         2.722
    3549.500  0.6265245E+12         2.722
    3599.500  0.6264458E+12         2.722
    3649.500  0.6265264E+12         2.721
    3699.500  0.6263630E+12         2.721
    3749.500  0.6265146E+12         2.720
    3799.500  0.6262979E+12         2.720
    3849.500  0.6264524E+12         2.719
    3899.500  0.6263019E+12         2.719
    3949.500  0.6263619E+12         2.718
    3999.500  0.6262735E+12         2.718
    4049.500  0.6262343E+12         2.718
    4099.500  0.6263027E+12         2.717
    4149.500  0.6261138E+12         2.717
    4199.500  0.6263409E+12         2.717
    4249.500  0.6261187E+12         2.716
    4299.500  0.6262385E+12         2.716
    4349.500  0.6261452E+12         2.716
    4399.500  0.6261671E+12         2.715
    4449.500  0.6261922E+12         2.715
    4499.500  0.6260420E+12         2.715
    4549.500  0.6261836E+12         2.715
    4599.500  0.6259712E+12         2.714
    4649.500  0.6262318E+12         2.714
    4699.500  0.6259902E+12         2.714
    4749.500  0.6261851E+12         2.713
    4799.500  0.6259922E+12         2.713
    4849.500  0.6260008E+12         2.713
    4899.500  0.6260452E+12         2.713
    4949.500  0.6258805E+12         2.713
    4999.500  0.6261117E+12         2.712
    5049.500  0.6258728E+12         2.712
    5099.500  0.6260301E+12         2.712
    5149.500  0.6259122E+12         2.712
    5199.500  0.6259915E+12         2.711
    5249.500  0.6259283E+12         2.711
    5299.500  0.6258963E+12         2.711
    5349.500  0.6260234E+12         2.711
    5399.500  0.6258487E+12         2.711
    5449.500  0.6260755E+12         2.711
    5499.500  0.6258534E+12         2.710
    5549.500  0.6259985E+12         2.710
    5599.500  0.6259190E+12         2.710
    5649.500  0.6259874E+12         2.710
    5699.500  0.6259410E+12         2.710
    5749.500  0.6258826E+12         2.710
    5799.500  0.6260471E+12         2.709
    5849.500  0.6258341E+12         2.709
    5899.500  0.6260617E+12         2.709
    5949.500  0.6258930E+12         2.709
    5999.500  0.6260218E+12         2.709
    6049.500  0.6259466E+12         2.709
    6099.500  0.6259696E+12         2.709
    6149.500  0.6259805E+12         2.709
    6199.500  0.6259124E+12         2.709
    6249.500  0.6260890E+12         2.708
    6299.500  0.6258684E+12         2.708
    6349.500  0.6260919E+12         2.708
    6399.500  0.6259591E+12         2.708
    6449.500  0.6260244E+12         2.708
    6499.500  0.6260034E+12         2.708
    6549.500  0.6260012E+12         2.708
    6599.500  0.6260372E+12         2.708
    6649.500  0.6259613E+12         2.708
    6699.500  0.6261536E+12         2.707
    6749.500  0.6259030E+12         2.708
    6799.500  0.6261306E+12         2.707
    6849.500  0.6259966E+12         2.707
    6899.500  0.6260556E+12         2.707
    6949.500  0.6260609E+12         2.707
    6999.500  0.6259889E+12         2.707
    7049.500  0.6261003E+12         2.707
    7099.500  0.6259728E+12         2.707
    7149.500  0.6261830E+12         2.707
    7199.500  0.6259411E+12         2.707
    7249.500  0.6261567E+12         2.707
    7299.500  0.6260457E+12         2.707
    7349.500  0.6260482E+12         2.707
    7399.500  0.6261065E+12         2.707
    7449.500  0.6260087E+12         2.707
    7499.500  0.6261526E+12         2.707
    7549.500  0.6259933E+12         2.706
    7599.500  0.6261951E+12         2.706
    7649.500  0.6260091E+12         2.706
    7699.500  0.6261498E+12         2.706
    7749.500  0.6260864E+12         2.706
    7799.500  0.6260454E+12         2.706
    7849.500  0.6261444E+12         2.706
    7899.500  0.6260545E+12         2.706
    7949.500  0.6262066E+12         2.706
    7999.500  0.6260094E+12         2.706
    8049.500  0.6262079E+12         2.706
    8099.500  0.6261256E+12         2.706
    8149.500  0.6261407E+12         2.706
    8199.500  0.6261038E+12         2.706
    8249.500  0.6260343E+12         2.706
    8299.500  0.6262329E+12         2.706
    8349.500  0.6260689E+12         2.706
    8399.500  0.6262778E+12         2.706
    8449.500  0.6260092E+12         2.706
    8499.500  0.6261738E+12         2.706
    8549.500  0.6260692E+12         2.706
    8599.500  0.6261220E+12         2.706
    8649.500  0.6261166E+12         2.706
    8699.500  0.6260403E+12         2.706
    8749.500  0.6261885E+12         2.706
    8799.500  0.6259814E+12         2.706
    8849.500  0.6262393E+12         2.706
    8899.500  0.6260971E+12         2.705
    8949.500  0.6261286E+12         2.706
    8999.500  0.6260935E+12         2.706
    9049.500  0.6260917E+12         2.706
    9099.500  0.6262654E+12         2.705
    9149.500  0.6260899E+12         2.706
    9199.500  0.6262766E+12         2.705
    9249.500  0.6261385E+12         2.705
    9299.500  0.6262789E+12         2.705
    9349.500  0.6261658E+12         2.705
    9399.500  0.6262527E+12         2.705
    9449.500  0.6262561E+12         2.705
    9499.500  0.6261255E+12         2.705
    9549.500  0.6262935E+12         2.705
    9599.500  0.6261249E+12         2.705
    9649.500  0.6263548E+12         2.705
    9699.500  0.6261122E+12         2.705
    9749.500  0.6262995E+12         2.705
    9799.500  0.6262133E+12         2.705
    9849.500  0.6262256E+12         2.705
    9899.500  0.6262350E+12         2.705
    9949.500  0.6261515E+12         2.705
    9999.500  0.6262948E+12         2.705
